Tempo(s),EMG_Value
0.0000,1456
0.0020,192
0.0040,768
0.0060,3200
0.0080,1408
0.0100,1024
0.0120,976
0.0140,704
0.0160,1632
0.0180,1024
0.0200,768
0.0220,1088
0.0240,864
0.0260,896
0.0280,1120
0.0300,912
0.0320,1056
0.0340,1248
0.0360,1024
0.0380,736
0.0400,832
0.0420,912
0.0440,1232
0.0460,816
0.0480,960
0.0500,1248
0.0520,1184
0.0540,1152
0.0560,992
0.0580,784
0.0600,1088
0.0620,1584
0.0640,928
0.0660,1232
0.0680,1056
0.0700,720
0.0720,912
0.0740,768
0.0760,1184
0.0780,1168
0.0800,976
0.0820,896
0.0840,976
0.0860,1024
0.0880,1504
0.0900,1120
0.0920,976
0.0940,912
0.0960,1072
0.0980,944
0.1000,800
0.1020,1184
0.1040,800
0.1060,1040
0.1080,944
0.1100,2080
0.1120,1280
0.1140,944
0.1160,848
0.1180,1152
0.1200,1040
0.1220,1088
0.1240,976
0.1260,1264
0.1280,1056
0.1300,944
0.1320,1072
0.1340,1504
0.1360,736
0.1380,1184
0.1400,800
0.1420,896
0.1440,896
0.1460,1024
0.1480,1520
0.1500,1344
0.1520,1424
0.1540,1584
0.1560,1328
0.1580,1120
0.1600,832
0.1620,1184
0.1640,2320
0.1660,1152
0.1680,1248
0.1700,2864
0.1720,1936
0.1740,672
0.1760,816
0.1780,832
0.1800,1168
0.1820,1408
0.1840,816
0.1860,1088
0.1880,1120
0.1900,1152
0.1920,848
0.1940,720
0.1960,1664
0.1980,1248
0.2000,1280
0.2020,1072
0.2040,1152
0.2060,1680
0.2080,1088
0.2100,1040
0.2120,864
0.2140,832
0.2160,1344
0.2180,608
0.2200,1168
0.2220,1104
0.2240,1040
0.2260,896
0.2280,640
0.2300,736
0.2320,1152
0.2340,816
0.2360,800
0.2380,1184
0.2400,1120
0.2420,704
0.2440,1008
0.2460,1600
0.2480,1120
0.2500,1120
0.2520,1152
0.2540,944
0.2560,1232
0.2580,800
0.2600,1104
0.2620,1568
0.2640,1024
0.2660,1056
0.2680,1072
0.2700,1104
0.2720,1600
0.2740,944
0.2760,736
0.2780,976
0.2800,896
0.2820,1120
0.2840,1408
0.2860,1472
0.2880,1120
0.2900,1040
0.2920,1280
0.2940,1248
0.2960,1360
0.2980,1040
0.3000,1184
0.3020,2016
0.3040,1200
0.3060,848
0.3080,1024
0.3100,912
0.3120,1200
0.3140,1312
0.3160,1408
0.3180,1072
0.3200,960
0.3220,832
0.3240,768
0.3260,1104
0.3280,944
0.3300,656
0.3320,1072
0.3340,1344
0.3360,1776
0.3380,816
0.3400,1008
0.3420,912
0.3440,960
0.3460,1008
0.3480,912
0.3500,1216
0.3520,1024
0.3540,1056
0.3560,1088
0.3580,832
0.3600,992
0.3620,992
0.3640,1312
0.3660,864
0.3680,192
0.3700,1056
0.3720,816
0.3740,896
0.3760,1888
0.3780,1216
0.3800,1696
0.3820,1152
0.3840,816
0.3860,1504
0.3880,736
0.3900,896
0.3920,1104
0.3940,816
0.3960,1152
0.3980,896
0.4000,944
0.4020,864
0.4040,1040
0.4060,688
0.4080,960
0.4100,1616
0.4120,880
0.4140,944
0.4160,1040
0.4180,1424
0.4200,864
0.4220,1248
0.4240,960
0.4260,1056
0.4280,832
0.4300,832
0.4320,1168
0.4340,2336
0.4360,1008
0.4380,1344
0.4400,1216
0.4420,1216
0.4440,1168
0.4460,752
0.4480,1424
0.4500,1376
0.4520,912
0.4540,1472
0.4560,800
0.4580,1280
0.4600,1040
0.4620,944
0.4640,1040
0.4660,2224
0.4680,768
0.4700,1168
0.4720,960
0.4740,768
0.4760,1216
0.4780,832
0.4800,1808
0.4820,1760
0.4840,1232
0.4860,2128
0.4880,928
0.4900,1120
0.4920,784
0.4940,1184
0.4960,1312
0.4980,1168
0.5000,1296
0.5020,1168
0.5040,784
0.5060,1360
0.5080,1104
0.5100,1056
0.5120,1728
0.5140,944
0.5160,1504
0.5180,1152
0.5200,992
0.5220,672
0.5240,1296
0.5260,2208
0.5280,1312
0.5300,976
0.5320,1472
0.5340,912
0.5360,1552
0.5380,1376
0.5400,704
0.5420,1200
0.5440,1232
0.5460,1248
0.5480,1104
0.5500,832
0.5520,832
0.5540,1360
0.5560,736
0.5580,832
0.5600,1040
0.5620,1536
0.5640,720
0.5660,1184
0.5680,672
0.5700,896
0.5720,1504
0.5740,1248
0.5760,960
0.5780,1584
0.5800,1360
0.5820,832
0.5840,784
0.5860,1152
0.5880,864
0.5900,1040
0.5920,976
0.5940,752
0.5960,1184
0.5980,1840
0.6000,800
0.6020,1136
0.6040,848
0.6060,1152
0.6080,976
0.6100,832
0.6120,960
0.6140,1328
0.6160,1232
0.6180,976
0.6200,1456
0.6220,1168
0.6240,1104
0.6260,1152
0.6280,960
0.6300,1872
0.6320,736
0.6340,1184
0.6360,1808
0.6380,1232
0.6400,1184
0.6420,2016
0.6440,848
0.6460,1024
0.6480,1408
0.6500,992
0.6520,768
0.6540,1184
0.6560,1888
0.6580,2080
0.6600,1920
0.6620,960
0.6640,1088
0.6660,1184
0.6680,912
0.6700,1104
0.6720,768
0.6740,1056
0.6760,1056
0.6780,1248
0.6800,1360
0.6820,1024
0.6840,736
0.6860,816
0.6880,736
0.6900,1152
0.6920,1088
0.6940,944
0.6960,832
0.6980,1472
0.7000,1488
0.7020,1632
0.7040,944
0.7060,1280
0.7080,2176
0.7100,896
0.7120,816
0.7140,576
0.7160,736
0.7180,1136
0.7200,1712
0.7220,1536
0.7240,2000
0.7260,1552
0.7280,928
0.7300,1696
0.7320,768
0.7340,1824
0.7360,1360
0.7380,1632
0.7400,1792
0.7420,912
0.7440,1024
0.7460,864
0.7480,960
0.7500,1152
0.7520,3776
0.7540,8658
0.7560,4625
0.7580,1232
0.7600,912
0.7620,960
0.7640,2400
0.7660,1072
0.7680,1152
0.7700,4129
0.7720,5457
0.7740,1248
0.7760,992
0.7780,896
0.7800,1680
0.7820,1776
0.7840,1184
0.7860,800
0.7880,848
0.7900,1152
0.7920,800
0.7940,992
0.7960,1184
0.7980,1184
0.8000,944
0.8020,832
0.8040,1216
0.8060,1616
0.8080,1024
0.8100,1248
0.8120,1216
0.8140,1408
0.8160,1200
0.8180,832
0.8200,1472
0.8220,1296
0.8240,1088
0.8260,1376
0.8280,1024
0.8300,1168
0.8320,1216
0.8340,1184
0.8360,1184
0.8380,1152
0.8400,1072
0.8420,800
0.8440,1104
0.8460,1680
0.8480,2192
0.8500,896
0.8520,1184
0.8540,832
0.8560,1328
0.8580,1072
0.8600,1376
0.8620,1216
0.8640,1616
0.8660,1200
0.8680,864
0.8700,736
0.8720,800
0.8740,832
0.8760,992
0.8780,1104
0.8800,2912
0.8820,1056
0.8840,976
0.8860,1072
0.8880,832
0.8900,816
0.8920,1040
0.8940,1072
0.8960,1072
0.8980,1232
0.9000,1888
0.9020,3680
0.9040,3264
0.9060,1248
0.9080,768
0.9100,912
0.9120,1232
0.9140,848
0.9160,1104
0.9180,992
0.9200,1152
0.9220,1712
0.9240,992
0.9260,1104
0.9280,1360
0.9300,1344
0.9320,1088
0.9340,1248
0.9360,1248
0.9380,912
0.9400,736
0.9420,848
0.9440,1008
0.9460,2048
0.9480,2048
0.9500,1376
0.9520,1472
0.9540,608
0.9560,944
0.9580,1072
0.9600,1424
0.9620,1184
0.9640,640
0.9660,1696
0.9680,944
0.9700,1232
0.9720,1248
0.9740,1408
0.9760,1232
0.9780,1168
0.9800,1152
0.9820,1184
0.9840,992
0.9860,848
0.9880,1888
0.9900,1184
0.9920,736
0.9940,976
0.9960,1744
0.9980,1184
1.0000,976
1.0020,1120
1.0040,1200
1.0060,1280
1.0080,1376
1.0100,1584
1.0120,784
1.0140,4241
1.0160,7297
1.0180,2016
1.0200,1776
1.0220,688
1.0240,928
1.0260,1248
1.0280,1584
1.0300,1216
1.0320,1168
1.0340,1280
1.0360,1008
1.0380,752
1.0400,1088
1.0420,1152
1.0440,816
1.0460,1248
1.0480,1312
1.0500,1184
1.0520,1040
1.0540,1056
1.0560,1104
1.0580,848
1.0600,1456
1.0620,1328
1.0640,1456
1.0660,992
1.0680,1856
1.0700,1184
1.0720,1376
1.0740,880
1.0760,768
1.0780,1344
1.0800,1200
1.0820,2480
1.0840,928
1.0860,2128
1.0880,2272
1.0900,976
1.0920,1024
1.0940,736
1.0960,816
1.0980,1280
1.1000,1088
1.1020,1168
1.1040,1104
1.1060,1168
1.1080,2176
1.1100,912
1.1120,2784
1.1140,6545
1.1160,2896
1.1180,864
1.1200,1120
1.1220,704
1.1240,976
1.1260,2272
1.1280,2192
1.1300,1040
1.1320,1536
1.1340,864
1.1360,1216
1.1380,1040
1.1400,960
1.1420,1008
1.1440,864
1.1460,848
1.1480,1040
1.1500,864
1.1520,1120
1.1540,848
1.1560,720
1.1580,912
1.1600,1072
1.1620,1408
1.1640,3296
1.1660,1632
1.1680,848
1.1700,944
1.1720,1488
1.1740,992
1.1760,896
1.1780,1536
1.1800,1072
1.1820,768
1.1840,1040
1.1860,960
1.1880,1056
1.1900,1072
1.1920,960
1.1940,1888
1.1960,1424
1.1980,1568
1.2000,896
1.2020,1152
1.2040,656
1.2060,1568
1.2080,1104
1.2100,960
1.2120,1328
1.2140,1184
1.2160,1344
1.2180,4433
1.2200,1248
1.2220,1360
1.2240,1136
1.2260,1152
1.2280,1104
1.2300,1040
1.2320,864
1.2340,848
1.2360,1136
1.2380,960
1.2400,832
1.2420,1216
1.2440,1168
1.2460,1216
1.2480,1040
1.2500,1024
1.2520,896
1.2540,1136
1.2560,896
1.2580,1040
1.2600,720
1.2620,848
1.2640,848
1.2660,1760
1.2680,992
1.2700,720
1.2720,3024
1.2740,1104
1.2760,1200
1.2780,1312
1.2800,944
1.2820,848
1.2840,992
1.2860,1040
1.2880,1104
1.2900,1104
1.2920,864
1.2940,1152
1.2960,1984
1.2980,1168
1.3000,832
1.3020,1088
1.3040,768
1.3060,1200
1.3080,928
1.3100,1120
1.3120,944
1.3140,1952
1.3160,1136
1.3180,1504
1.3200,1152
1.3220,1536
1.3240,1088
1.3260,816
1.3280,1232
1.3300,1872
1.3320,1184
1.3340,864
1.3360,960
1.3380,1072
1.3400,1152
1.3420,928
1.3440,2128
1.3460,1824
1.3480,1184
1.3500,1344
1.3520,1344
1.3540,976
1.3560,736
1.3580,848
1.3600,1168
1.3620,800
1.3640,1264
1.3660,992
1.3680,1104
1.3700,1040
1.3720,672
1.3740,1344
1.3760,1296
1.3780,1216
1.3800,1184
1.3820,1312
1.3840,1600
1.3860,1168
1.3880,624
1.3900,896
1.3920,1024
1.3940,1168
1.3960,992
1.3980,1072
1.4000,1168
1.4020,768
1.4040,1184
1.4060,1456
1.4080,1568
1.4100,704
1.4120,1888
1.4140,4273
1.4160,1168
1.4180,5185
1.4200,3856
1.4220,1936
1.4240,1408
1.4260,1184
1.4280,1168
1.4300,800
1.4320,1152
1.4340,944
1.4360,1568
1.4380,848
1.4400,1984
1.4420,1296
1.4440,1056
1.4460,704
1.4480,1376
1.4500,1216
1.4520,992
1.4540,1360
1.4560,944
1.4580,1104
1.4600,1216
1.4620,912
1.4640,1984
1.4660,1200
1.4680,1952
1.4700,1280
1.4720,1344
1.4740,1152
1.4760,1216
1.4780,1360
1.4800,1216
1.4820,1216
1.4840,1120
1.4860,816
1.4880,1168
1.4900,1152
1.4920,1280
1.4940,1424
1.4960,1744
1.4980,1248
1.5000,720
1.5020,672
1.5040,3024
1.5060,1152
1.5080,1088
1.5100,832
1.5120,896
1.5140,2176
1.5160,1088
1.5180,848
1.5200,800
1.5220,1312
1.5240,832
1.5260,1216
1.5280,1328
1.5300,912
1.5320,2272
1.5340,1888
1.5360,1312
1.5380,1200
1.5400,1408
1.5420,992
1.5440,976
1.5460,1520
1.5480,1088
1.5500,912
1.5520,800
1.5540,2768
1.5560,1248
1.5580,928
1.5600,1408
1.5620,1584
1.5640,1184
1.5660,1184
1.5680,1504
1.5700,1088
1.5720,944
1.5740,1120
1.5760,960
1.5780,1056
1.5800,864
1.5820,1824
1.5840,832
1.5860,1104
1.5880,1616
1.5900,816
1.5920,720
1.5940,976
1.5960,1168
1.5980,1008
1.6000,1168
1.6020,1120
1.6040,1280
1.6060,976
1.6080,1824
1.6100,960
1.6120,816
1.6140,1632
1.6160,1504
1.6180,864
1.6200,1056
1.6220,1120
1.6240,1648
1.6260,1216
1.6280,1168
1.6300,1168
1.6320,1744
1.6340,992
1.6360,768
1.6380,736
1.6400,896
1.6420,848
1.6440,784
1.6460,1072
1.6480,816
1.6500,736
1.6520,1248
1.6540,1216
1.6560,1088
1.6580,992
1.6600,992
1.6620,1200
1.6640,1312
1.6660,720
1.6680,1120
1.6700,1200
1.6720,1168
1.6740,1360
1.6760,8722
1.6780,4785
1.6800,1136
1.6820,784
1.6840,976
1.6860,1344
1.6880,960
1.6900,928
1.6920,1744
1.6940,960
1.6960,1312
1.6980,880
1.7000,1600
1.7020,992
1.7040,1072
1.7060,656
1.7080,832
1.7100,1856
1.7120,1424
1.7140,1504
1.7160,704
1.7180,912
1.7200,832
1.7220,768
1.7240,912
1.7260,1152
1.7280,1280
1.7300,1568
1.7320,1216
1.7340,656
1.7360,800
1.7380,1312
1.7400,672
1.7420,2432
1.7440,3904
1.7460,2016
1.7480,1184
1.7500,1328
1.7520,768
1.7540,928
1.7560,1136
1.7580,1488
1.7600,768
1.7620,1040
1.7640,928
1.7660,1344
1.7680,1040
1.7700,752
1.7720,976
1.7740,928
1.7760,928
1.7780,1024
1.7800,1360
1.7820,768
1.7840,1152
1.7860,672
1.7880,736
1.7900,1344
1.7920,800
1.7940,816
1.7960,1408
1.7980,832
1.8000,1120
1.8020,6401
1.8040,1360
1.8060,1840
1.8080,1024
1.8100,1296
1.8120,1152
1.8140,1440
1.8160,2000
1.8180,3136
1.8200,944
1.8220,1168
1.8240,944
1.8260,1216
1.8280,1328
1.8300,1072
1.8320,1040
1.8340,1152
1.8360,1056
1.8380,784
1.8400,1088
1.8420,1248
1.8440,1200
1.8460,800
1.8480,1840
1.8500,752
1.8520,1168
1.8540,1328
1.8560,1664
1.8580,1152
1.8600,2368
1.8620,1072
1.8640,1040
1.8660,816
1.8680,720
1.8700,992
1.8720,992
1.8740,736
1.8760,1104
1.8780,1152
1.8800,1152
1.8820,1168
1.8840,1600
1.8860,2000
1.8880,1056
1.8900,800
1.8920,1168
1.8940,2128
1.8960,1296
1.8980,848
1.9000,1088
1.9020,1968
1.9040,1248
1.9060,992
1.9080,1056
1.9100,960
1.9120,1088
1.9140,1376
1.9160,1040
1.9180,1232
1.9200,960
1.9220,912
1.9240,1248
1.9260,1296
1.9280,944
1.9300,4289
1.9320,1232
1.9340,848
1.9360,1200
1.9380,1056
1.9400,1024
1.9420,864
1.9440,1152
1.9460,832
1.9480,1216
1.9500,1168
1.9520,1056
1.9540,1216
1.9560,1456
1.9580,848
1.9600,784
1.9620,1120
1.9640,2112
1.9660,992
1.9680,1280
1.9700,768
1.9720,1024
1.9740,864
1.9760,1120
1.9780,1248
1.9800,2224
1.9820,1120
1.9840,1216
1.9860,1360
1.9880,1024
1.9900,1024
1.9920,1216
1.9940,1312
1.9960,1040
1.9980,1280
2.0000,1088
2.0020,2800
2.0040,6145
2.0060,768
2.0080,624
2.0100,832
2.0120,1328
2.0140,976
2.0160,512
2.0180,1024
2.0200,896
2.0220,1216
2.0240,1856
2.0260,1616
2.0280,800
2.0300,1040
2.0320,912
2.0340,864
2.0360,816
2.0380,944
2.0400,736
2.0420,992
2.0440,816
2.0460,1280
2.0480,944
2.0500,1408
2.0520,848
2.0540,1248
2.0560,704
2.0580,960
2.0600,1120
2.0620,1184
2.0640,1312
2.0660,848
2.0680,2752
2.0700,2512
2.0720,832
2.0740,960
2.0760,1040
2.0780,1120
2.0800,1840
2.0820,944
2.0840,832
2.0860,848
2.0880,960
2.0900,912
2.0920,1200
2.0940,1248
2.0960,1072
2.0980,1024
2.1000,1232
2.1020,832
2.1040,896
2.1060,1088
2.1080,1216
2.1100,1248
2.1120,976
2.1140,1504
2.1160,2368
2.1180,848
2.1200,1088
2.1220,928
2.1240,800
2.1260,1136
2.1280,928
2.1300,1360
2.1320,864
2.1340,944
2.1360,1056
2.1380,1504
2.1400,1040
2.1420,1168
2.1440,1184
2.1460,1072
2.1480,1184
2.1500,848
2.1520,1504
2.1540,1520
2.1560,1152
2.1580,1296
2.1600,1328
2.1620,1216
2.1640,1664
2.1660,1296
2.1680,1296
2.1700,848
2.1720,928
2.1740,960
2.1760,1296
2.1780,976
2.1800,1792
2.1820,832
2.1840,1936
2.1860,1888
2.1880,1024
2.1900,1392
2.1920,832
2.1940,992
2.1960,1184
2.1980,1248
2.2000,1344
2.2020,1104
2.2040,1184
2.2060,1152
2.2080,4449
2.2100,5633
2.2120,1888
2.2140,928
2.2160,864
2.2180,1216
2.2200,1152
2.2220,672
2.2240,944
2.2260,944
2.2280,1264
2.2300,1440
2.2320,1552
2.2340,1536
2.2360,1072
2.2380,1312
2.2400,848
2.2420,864
2.2440,1312
2.2460,1120
2.2480,896
2.2500,1888
2.2520,1632
2.2540,1488
2.2560,1296
2.2580,912
2.2600,1088
2.2620,1984
2.2640,1024
2.2660,1024
2.2680,928
2.2700,864
2.2720,1120
2.2740,1024
2.2760,800
2.2780,1168
2.2800,944
2.2820,1232
2.2840,1184
2.2860,1056
2.2880,1280
2.2900,608
2.2920,1280
2.2940,1104
2.2960,1136
2.2980,944
2.3000,1440
2.3020,896
2.3040,800
2.3060,1440
2.3080,2080
2.3100,4257
2.3120,7473
2.3140,864
2.3160,1024
2.3180,1424
2.3200,1040
2.3220,1024
2.3240,1872
2.3260,1952
2.3280,720
2.3300,1984
2.3320,2336
2.3340,896
2.3360,1216
2.3380,1632
2.3400,752
2.3420,1040
2.3440,800
2.3460,1328
2.3480,832
2.3500,1264
2.3520,1712
2.3540,1280
2.3560,928
2.3580,1856
2.3600,1200
2.3620,1552
2.3640,1184
2.3660,1232
2.3680,1232
2.3700,992
2.3720,832
2.3740,800
2.3760,1168
2.3780,1168
2.3800,976
2.3820,1168
2.3840,656
2.3860,1408
2.3880,1296
2.3900,896
2.3920,848
2.3940,1168
2.3960,944
2.3980,1712
2.4000,1104
2.4020,1632
2.4040,5281
2.4060,1504
2.4080,912
2.4100,2304
2.4120,2496
2.4140,1296
2.4160,1808
2.4180,1296
2.4200,1664
2.4220,784
2.4240,1056
2.4260,1200
2.4280,928
2.4300,1088
2.4320,1072
2.4340,1680
2.4360,1120
2.4380,960
2.4400,1120
2.4420,1184
2.4440,1152
2.4460,1424
2.4480,1088
2.4500,1840
2.4520,992
2.4540,896
2.4560,1168
2.4580,1312
2.4600,1168
2.4620,1424
2.4640,1328
2.4660,1216
2.4680,1088
2.4700,1312
2.4720,1040
2.4740,1344
2.4760,1040
2.4780,1680
2.4800,1248
2.4820,992
2.4840,1024
2.4860,1072
2.4880,928
2.4900,1920
2.4920,1376
2.4940,928
2.4960,2224
2.4980,1632
2.5000,1376
2.5020,5313
2.5040,1792
2.5060,656
2.5080,1312
2.5100,1984
2.5120,1392
2.5140,1664
2.5160,656
2.5180,1088
2.5200,1376
2.5220,1248
2.5240,848
2.5260,560
2.5280,1024
2.5300,1216
2.5320,1248
2.5340,896
2.5360,1104
2.5380,1136
2.5400,1024
2.5420,896
2.5440,1136
2.5460,1328
2.5480,672
2.5500,1280
2.5520,768
2.5540,928
2.5560,1184
2.5580,1120
2.5600,768
2.5620,1536
2.5640,1328
2.5660,992
2.5680,2176
2.5700,1168
2.5720,1120
2.5740,896
2.5760,1120
2.5780,2080
2.5800,3472
2.5820,1216
2.5840,784
2.5860,1104
2.5880,1440
2.5900,1088
2.5920,992
2.5940,944
2.5960,1248
2.5980,768
2.6000,2176
2.6020,2544
2.6040,2240
2.6060,1040
2.6080,1712
2.6100,672
2.6120,912
2.6140,912
2.6160,784
2.6180,864
2.6200,1120
2.6220,3008
2.6240,2080
2.6260,1536
2.6280,1312
2.6300,1216
2.6320,1024
2.6340,832
2.6360,960
2.6380,1056
2.6400,848
2.6420,1152
2.6440,864
2.6460,1408
2.6480,1312
2.6500,1248
2.6520,768
2.6540,960
2.6560,720
2.6580,1104
2.6600,1056
2.6620,864
2.6640,864
2.6660,1056
2.6680,784
2.6700,784
2.6720,928
2.6740,816
2.6760,1824
2.6780,1680
2.6800,1424
2.6820,928
2.6840,1056
2.6860,672
2.6880,1232
2.6900,720
2.6920,1664
2.6940,6241
2.6960,5137
2.6980,1024
2.7000,1328
2.7020,1168
2.7040,944
2.7060,1088
2.7080,1440
2.7100,1280
2.7120,784
2.7140,896
2.7160,816
2.7180,768
2.7200,1232
2.7220,816
2.7240,1104
2.7260,1312
2.7280,1376
2.7300,1760
2.7320,800
2.7340,1168
2.7360,1104
2.7380,1120
2.7400,1296
2.7420,1216
2.7440,1168
2.7460,1168
2.7480,800
2.7500,1088
2.7520,704
2.7540,960
2.7560,1744
2.7580,784
2.7600,1296
2.7620,1104
2.7640,1328
2.7660,1200
2.7680,1104
2.7700,816
2.7720,960
2.7740,752
2.7760,768
2.7780,5169
2.7800,5457
2.7820,1424
2.7840,1104
2.7860,896
2.7880,816
2.7900,1680
2.7920,1712
2.7940,864
2.7960,1088
2.7980,2000
2.8000,992
2.8020,992
2.8040,1248
2.8060,864
2.8080,1056
2.8100,1744
2.8120,1216
2.8140,1632
2.8160,4064
2.8180,2304
2.8200,1376
2.8220,832
2.8240,672
2.8260,1216
2.8280,1984
2.8300,1440
2.8320,1360
2.8340,896
2.8360,944
2.8380,1216
2.8400,1232
2.8420,1088
2.8440,1104
2.8460,912
2.8480,832
2.8500,784
2.8520,1216
2.8540,1104
2.8560,1168
2.8580,1184
2.8600,1552
2.8620,960
2.8640,1216
2.8660,768
2.8680,800
2.8700,3968
2.8720,4513
2.8740,1360
2.8760,976
2.8780,1168
2.8800,928
2.8820,1824
2.8840,704
2.8860,1408
2.8880,736
2.8900,1440
2.8920,688
2.8940,1808
2.8960,1232
2.8980,800
2.9000,752
2.9020,912
2.9040,832
2.9060,1072
2.9080,1248
2.9100,1344
2.9120,944
2.9140,1264
2.9160,1408
2.9180,4833
2.9200,2448
2.9220,2208
2.9240,1168
2.9260,1152
2.9280,1280
2.9300,992
2.9320,1776
2.9340,1040
2.9360,1968
2.9380,1328
2.9400,848
2.9420,912
2.9440,1408
2.9460,1344
2.9480,784
2.9500,1312
2.9520,800
2.9540,848
2.9560,1088
2.9580,1248
2.9600,912
2.9620,944
2.9640,1200
2.9660,672
2.9680,5793
2.9700,3552
2.9720,784
2.9740,1008
2.9760,1184
2.9780,1120
2.9800,912
2.9820,1168
2.9840,704
2.9860,1776
2.9880,1232
2.9900,816
2.9920,880
2.9940,1664
2.9960,1072
2.9980,1024
3.0000,1344
3.0020,1168
3.0040,1248
3.0060,1232
3.0080,1056
3.0100,1184
3.0120,800
3.0140,912
3.0160,1232
3.0180,912
3.0200,1520
3.0220,1520
3.0240,1344
3.0260,1664
3.0280,1680
3.0300,832
3.0320,1472
3.0340,1936
3.0360,1168
3.0380,1104
3.0400,1056
3.0420,832
3.0440,832
3.0460,1632
3.0480,864
3.0500,1264
3.0520,944
3.0540,944
3.0560,992
3.0580,1024
3.0600,2560
3.0620,1632
3.0640,1296
3.0660,1120
3.0680,1056
3.0700,928
3.0720,848
3.0740,1280
3.0760,1872
3.0780,1168
3.0800,1072
3.0820,848
3.0840,1392
3.0860,1056
3.0880,1408
3.0900,1184
3.0920,1280
3.0940,784
3.0960,1152
3.0980,1088
3.1000,768
3.1020,1088
3.1040,1024
3.1060,2160
3.1080,1312
3.1100,976
3.1120,1008
3.1140,1168
3.1160,928
3.1180,1040
3.1200,1600
3.1220,896
3.1240,1632
3.1260,1152
3.1280,1280
3.1300,896
3.1320,1280
3.1340,1200
3.1360,1040
3.1380,784
3.1400,1104
3.1420,1680
3.1440,1104
3.1460,1200
3.1480,832
3.1500,1072
3.1520,864
3.1540,1680
3.1560,1328
3.1580,2560
3.1600,1872
3.1620,944
3.1640,1088
3.1660,1472
3.1680,912
3.1700,688
3.1720,832
3.1740,2304
3.1760,1040
3.1780,1584
3.1800,912
3.1820,784
3.1840,2848
3.1860,928
3.1880,1536
3.1900,720
3.1920,2208
3.1940,784
3.1960,1136
3.1980,1024
3.2000,1552
3.2020,928
3.2040,1424
3.2060,1280
3.2080,1504
3.2100,1024
3.2120,816
3.2140,1200
3.2160,1296
3.2180,784
3.2200,1920
3.2220,944
3.2240,688
3.2260,1792
3.2280,688
3.2300,1024
3.2320,3680
3.2340,1280
3.2360,1440
3.2380,1056
3.2400,1152
3.2420,1616
3.2440,3200
3.2460,3232
3.2480,1024
3.2500,1216
3.2520,1040
3.2540,1296
3.2560,1312
3.2580,1664
3.2600,880
3.2620,912
3.2640,992
3.2660,1600
3.2680,1200
3.2700,1280
3.2720,1296
3.2740,1200
3.2760,2048
3.2780,864
3.2800,800
3.2820,1264
3.2840,1024
3.2860,736
3.2880,864
3.2900,688
3.2920,928
3.2940,1264
3.2960,1696
3.2980,896
3.3000,1264
3.3020,1104
3.3040,1072
3.3060,2544
3.3080,2752
3.3100,1264
3.3120,1168
3.3140,1632
3.3160,1360
3.3180,1200
3.3200,768
3.3220,800
3.3240,976
3.3260,1296
3.3280,1504
3.3300,848
3.3320,912
3.3340,912
3.3360,944
3.3380,5217
3.3400,3232
3.3420,848
3.3440,1984
3.3460,1408
3.3480,1040
3.3500,928
3.3520,1056
3.3540,1152
3.3560,1600
3.3580,2384
3.3600,1312
3.3620,752
3.3640,1312
3.3660,1232
3.3680,3232
3.3700,1104
3.3720,1184
3.3740,1616
3.3760,1312
3.3780,1360
3.3800,1152
3.3820,1584
3.3840,864
3.3860,1264
3.3880,2480
3.3900,3744
3.3920,864
3.3940,672
3.3960,1040
3.3980,1040
3.4000,912
3.4020,1120
3.4040,816
3.4060,800
3.4080,928
3.4100,1024
3.4120,1856
3.4140,848
3.4160,1376
3.4180,1952
3.4200,1408
3.4220,848
3.4240,944
3.4260,1184
3.4280,832
3.4300,1248
3.4320,960
3.4340,1056
3.4360,1152
3.4380,736
3.4400,6097
3.4420,7553
3.4440,1568
3.4460,1360
3.4480,1200
3.4500,640
3.4520,2096
3.4540,1024
3.4560,976
3.4580,848
3.4600,1296
3.4620,1152
3.4640,1104
3.4660,1120
3.4680,1056
3.4700,1584
3.4720,3168
3.4740,1696
3.4760,1024
3.4780,1168
3.4800,1008
3.4820,944
3.4840,768
3.4860,720
3.4880,1296
3.4900,1312
3.4920,992
3.4940,1296
3.4960,1312
3.4980,1360
3.5000,1536
3.5020,1360
3.5040,1040
3.5060,944
3.5080,848
3.5100,1024
3.5120,1424
3.5140,2608
3.5160,2080
3.5180,1488
3.5200,1344
3.5220,832
3.5240,1232
3.5260,1072
3.5280,912
3.5300,1808
3.5320,1248
3.5340,1152
3.5360,992
3.5380,3152
3.5400,5217
3.5420,8754
3.5440,1456
3.5460,4145
3.5480,1744
3.5500,1616
3.5520,2704
3.5540,2496
3.5560,1552
3.5580,704
3.5600,1104
3.5620,992
3.5640,1216
3.5660,2016
3.5680,1168
3.5700,1616
3.5720,1296
3.5740,1152
3.5760,1040
3.5780,1152
3.5800,1168
3.5820,1040
3.5840,1104
3.5860,944
3.5880,1616
3.5900,736
3.5920,800
3.5940,1072
3.5960,3808
3.5980,1296
3.6000,816
3.6020,1472
3.6040,1328
3.6060,1776
3.6080,1712
3.6100,1520
3.6120,1936
3.6140,800
3.6160,720
3.6180,1056
3.6200,1888
3.6220,928
3.6240,832
3.6260,944
3.6280,1120
3.6300,928
3.6320,1072
3.6340,896
3.6360,1248
3.6380,1456
3.6400,848
3.6420,1504
3.6440,1296
3.6460,1408
3.6480,1856
3.6500,1248
3.6520,2576
3.6540,1088
3.6560,1456
3.6580,1424
3.6600,1104
3.6620,1856
3.6640,928
3.6660,928
3.6680,1088
3.6700,864
3.6720,736
3.6740,1456
3.6760,704
3.6780,1120
3.6800,1408
3.6820,1920
3.6840,960
3.6860,1056
3.6880,1072
3.6900,1184
3.6920,1408
3.6940,1760
3.6960,1200
3.6980,848
3.7000,768
3.7020,960
3.7040,2000
3.7060,848
3.7080,1296
3.7100,1568
3.7120,1024
3.7140,1328
3.7160,1280
3.7180,688
3.7200,1088
3.7220,1216
3.7240,1088
3.7260,1040
3.7280,1328
3.7300,1392
3.7320,1120
3.7340,1296
3.7360,944
3.7380,1936
3.7400,1088
3.7420,1408
3.7440,2384
3.7460,1936
3.7480,3152
3.7500,1616
3.7520,1248
3.7540,1168
3.7560,1216
3.7580,1264
3.7600,1056
3.7620,736
3.7640,960
3.7660,1232
3.7680,960
3.7700,864
3.7720,1136
3.7740,944
3.7760,2688
3.7780,1728
3.7800,976
3.7820,1360
3.7840,1056
3.7860,1072
3.7880,1168
3.7900,1056
3.7920,1056
3.7940,1312
3.7960,2016
3.7980,1072
3.8000,912
3.8020,1248
3.8040,976
3.8060,864
3.8080,960
3.8100,1280
3.8120,1296
3.8140,1456
3.8160,784
3.8180,784
3.8200,832
3.8220,912
3.8240,976
3.8260,1040
3.8280,1360
3.8300,2480
3.8320,1664
3.8340,960
3.8360,5953
3.8380,6561
3.8400,1056
3.8420,976
3.8440,1296
3.8460,1232
3.8480,1264
3.8500,1216
3.8520,1456
3.8540,672
3.8560,1232
3.8580,928
3.8600,1200
3.8620,1072
3.8640,1088
3.8660,992
3.8680,1440
3.8700,2608
3.8720,928
3.8740,1792
3.8760,2448
3.8780,1792
3.8800,1184
3.8820,944
3.8840,2272
3.8860,912
3.8880,1024
3.8900,1168
3.8920,1328
3.8940,1360
3.8960,1056
3.8980,1040
3.9000,976
3.9020,1184
3.9040,800
3.9060,784
3.9080,1632
3.9100,768
3.9120,1536
3.9140,864
3.9160,1696
3.9180,784
3.9200,944
3.9220,1552
3.9240,992
3.9260,848
3.9280,1184
3.9300,800
3.9320,1072
3.9340,5329
3.9360,3760
3.9380,880
3.9400,1280
3.9420,1072
3.9440,1440
3.9460,976
3.9480,1712
3.9500,1472
3.9520,896
3.9540,1488
3.9560,2080
3.9580,800
3.9600,816
3.9620,1456
3.9640,1072
3.9660,1040
3.9680,864
3.9700,1216
3.9720,1168
3.9740,896
3.9760,1200
3.9780,816
3.9800,2704
3.9820,1104
3.9840,1024
3.9860,944
3.9880,848
3.9900,1312
3.9920,1248
3.9940,1632
3.9960,1456
3.9980,1056
4.0000,1024
4.0020,976
4.0040,1072
4.0060,912
4.0080,1968
4.0100,2096
4.0120,1056
4.0140,816
4.0160,1840
4.0180,1072
4.0200,1360
4.0220,6369
4.0240,2000
4.0260,1200
4.0280,1296
4.0300,1456
4.0320,1232
4.0340,656
4.0360,1072
4.0380,1296
4.0400,1312
4.0420,2016
4.0440,1552
4.0460,1120
4.0480,1808
4.0500,1200
4.0520,1104
4.0540,960
4.0560,1152
4.0580,1280
4.0600,1088
4.0620,1824
4.0640,1504
4.0660,1056
4.0680,1184
4.0700,1168
4.0720,832
4.0740,1984
4.0760,896
4.0780,1344
4.0800,800
4.0820,992
4.0840,800
4.0860,2480
4.0880,1360
4.0900,1232
4.0920,1088
4.0940,1312
4.0960,944
4.0980,1072
4.1000,1296
4.1020,736
4.1040,1120
4.1060,1040
4.1080,1040
4.1100,816
4.1120,784
4.1140,1088
4.1160,288
4.1180,720
4.1200,1440
4.1220,2080
4.1240,2128
4.1260,1056
4.1280,3040
4.1300,832
4.1320,1376
4.1340,1216
4.1360,1248
4.1380,848
4.1400,688
4.1420,1184
4.1440,832
4.1460,848
4.1480,5745
4.1500,4129
4.1520,992
4.1540,672
4.1560,768
4.1580,768
4.1600,960
4.1620,544
4.1640,1040
4.1660,1872
4.1680,1152
4.1700,848
4.1720,816
4.1740,1056
4.1760,1280
4.1780,1280
4.1800,1088
4.1820,1024
4.1840,1040
4.1860,848
4.1880,736
4.1900,752
4.1920,848
4.1940,816
4.1960,1728
4.1980,832
4.2000,1072
4.2020,1280
4.2040,944
4.2060,1088
4.2080,1152
4.2100,1040
4.2120,2048
4.2140,1344
4.2160,1088
4.2180,944
4.2200,1072
4.2220,1088
4.2240,1376
4.2260,864
4.2280,832
4.2300,1344
4.2320,912
4.2340,2176
4.2360,2448
4.2380,3344
4.2400,3408
4.2420,1296
4.2440,1056
4.2460,1488
4.2480,1056
4.2500,1488
4.2520,2224
4.2540,1232
4.2560,1360
4.2580,912
4.2600,1216
4.2620,960
4.2640,1152
4.2660,720
4.2680,1280
4.2700,1632
4.2720,1072
4.2740,976
4.2760,1200
4.2780,1216
4.2800,704
4.2820,1744
4.2840,1168
4.2860,832
4.2880,960
4.2900,1104
4.2920,1248
4.2940,1184
4.2960,1296
4.2980,944
4.3000,1120
4.3020,1952
4.3040,1168
4.3060,1072
4.3080,1216
4.3100,928
4.3120,1120
4.3140,1152
4.3160,1280
4.3180,2384
4.3200,912
4.3220,2048
4.3240,1344
4.3260,1152
4.3280,848
4.3300,1328
4.3320,1168
4.3340,912
4.3360,1552
4.3380,1920
4.3400,800
4.3420,1760
4.3440,784
4.3460,1216
4.3480,864
4.3500,768
4.3520,944
4.3540,1328
4.3560,1152
4.3580,1040
4.3600,1296
4.3620,4257
4.3640,1168
4.3660,800
4.3680,1024
4.3700,976
4.3720,1184
4.3740,1072
4.3760,1232
4.3780,1680
4.3800,1232
4.3820,1200
4.3840,2016
4.3860,1552
4.3880,1216
4.3900,1152
4.3920,1232
4.3940,784
4.3960,1344
4.3980,1200
4.4000,1328
4.4020,1152
4.4040,800
4.4060,896
4.4080,960
4.4100,1328
4.4120,1264
4.4140,1056
4.4160,784
4.4180,1920
4.4200,4609
4.4220,1456
4.4240,1088
4.4260,976
4.4280,1072
4.4300,1664
4.4320,1328
4.4340,992
4.4360,912
4.4380,1296
4.4400,1408
4.4420,736
4.4440,1376
4.4460,1104
4.4480,1424
4.4500,928
4.4520,9922
4.4540,2208
4.4560,1424
4.4580,2096
4.4600,1200
4.4620,1440
4.4640,736
4.4660,736
4.4680,1184
4.4700,3712
4.4720,1408
4.4740,1408
4.4760,1056
4.4780,1088
4.4800,992
4.4820,1504
4.4840,1872
4.4860,800
4.4880,1312
4.4900,816
4.4920,960
4.4940,928
4.4960,2848
4.4980,4881
4.5000,752
4.5020,1152
4.5040,1264
4.5060,992
4.5080,848
4.5100,848
4.5120,2144
4.5140,992
4.5160,976
4.5180,944
4.5200,672
4.5220,1008
4.5240,1600
4.5260,1248
4.5280,1248
4.5300,2400
4.5320,1744
4.5340,1152
4.5360,864
4.5380,1264
4.5400,2384
4.5420,1472
4.5440,592
4.5460,1824
4.5480,3472
4.5500,1616
4.5520,1248
4.5540,1152
4.5560,480
4.5580,1184
4.5600,1184
4.5620,1456
4.5640,1040
4.5660,2128
4.5680,1744
4.5700,1072
4.5720,1040
4.5740,800
4.5760,1216
4.5780,992
4.5800,1008
4.5820,896
4.5840,1232
4.5860,1952
4.5880,1552
4.5900,720
4.5920,1920
4.5940,848
4.5960,4913
4.5980,1024
4.6000,848
4.6020,3040
4.6040,1840
4.6060,1328
4.6080,1712
4.6100,1104
4.6120,1120
4.6140,672
4.6160,576
4.6180,720
4.6200,1168
4.6220,1440
4.6240,1024
4.6260,1184
4.6280,1232
4.6300,1552
4.6320,1040
4.6340,1072
4.6360,1312
4.6380,1360
4.6400,1040
4.6420,3520
4.6440,1248
4.6460,6881
4.6480,1120
4.6500,848
4.6520,784
4.6540,1168
4.6560,1200
4.6580,1120
4.6600,1664
4.6620,1120
4.6640,912
4.6660,1040
4.6680,3584
4.6700,1104
4.6720,2144
4.6740,1280
4.6760,2064
4.6780,1552
4.6800,784
4.6820,896
4.6840,960
4.6860,720
4.6880,688
4.6900,976
4.6920,1104
4.6940,1136
4.6960,1760
4.6980,1760
4.7000,1200
4.7020,1040
4.7040,2624
4.7060,3296
4.7080,1152
4.7100,1328
4.7120,1072
4.7140,1056
4.7160,1248
4.7180,1072
4.7200,1024
4.7220,944
4.7240,816
4.7260,1488
4.7280,1280
4.7300,1312
4.7320,960
4.7340,1760
4.7360,1312
4.7380,1296
4.7400,1216
4.7420,1152
4.7440,1152
4.7460,928
4.7480,960
4.7500,784
4.7520,1184
4.7540,5489
4.7560,992
4.7580,1424
4.7600,896
4.7620,992
4.7640,1072
4.7660,1184
4.7680,1200
4.7700,1280
4.7720,832
4.7740,1360
4.7760,768
4.7780,1472
4.7800,672
4.7820,1072
4.7840,1280
4.7860,1328
4.7880,1504
4.7900,1088
4.7920,976
4.7940,1904
4.7960,768
4.7980,1184
4.8000,1200
4.8020,4129
4.8040,4129
4.8060,896
4.8080,1216
4.8100,1376
4.8120,768
4.8140,1200
4.8160,1104
4.8180,816
4.8200,1456
4.8220,1104
4.8240,816
4.8260,1056
4.8280,848
4.8300,1296
4.8320,848
4.8340,1456
4.8360,2864
4.8380,1056
4.8400,1600
4.8420,1504
4.8440,1344
4.8460,1312
4.8480,928
4.8500,848
4.8520,1072
4.8540,1152
4.8560,1152
4.8580,848
4.8600,1088
4.8620,1104
4.8640,1168
4.8660,1024
4.8680,4337
4.8700,1792
4.8720,1024
4.8740,1360
4.8760,2096
4.8780,1168
4.8800,1232
4.8820,1104
4.8840,928
4.8860,912
4.8880,1280
4.8900,896
4.8920,704
4.8940,2576
4.8960,9426
4.8980,848
4.9000,1200
4.9020,1312
4.9040,1664
4.9060,1424
4.9080,1616
4.9100,816
4.9120,912
4.9140,992
4.9160,1024
4.9180,1200
4.9200,784
4.9220,880
4.9240,1152
4.9260,672
4.9280,1232
4.9300,912
4.9320,1248
4.9340,912
4.9360,1952
4.9380,3072
4.9400,1424
4.9420,2448
4.9440,2064
4.9460,1632
4.9480,1280
4.9500,1088
4.9520,816
4.9540,944
4.9560,1184
4.9580,832
4.9600,816
4.9620,1120
4.9640,976
4.9660,1184
4.9680,688
4.9700,1296
4.9720,1168
4.9740,1200
4.9760,1600
4.9780,1616
4.9800,7729
4.9820,3136
4.9840,1456
4.9860,1344
4.9880,2256
4.9900,2800
4.9920,720
4.9940,2336
4.9960,1232
4.9980,976
5.0000,1152
5.0020,0
5.0040,2432
5.0060,896
5.0080,848
5.0100,864
5.0120,1056
5.0140,1344
5.0160,1232
5.0180,976
5.0200,1568
5.0220,1568
5.0240,1296
5.0260,912
5.0280,1408
5.0300,1360
5.0320,1232
5.0340,864
5.0360,1216
5.0380,1024
5.0400,656
5.0420,1536
5.0440,1200
5.0460,1232
5.0480,1200
5.0500,992
5.0520,1040
5.0540,864
5.0560,928
5.0580,704
5.0600,1232
5.0620,720
5.0640,1776
5.0660,1136
5.0680,1376
5.0700,912
5.0720,5281
5.0740,3344
5.0760,1456
5.0780,1632
5.0800,1152
5.0820,960
5.0840,1360
5.0860,1088
5.0880,1200
5.0900,928
5.0920,1616
5.0940,768
5.0960,1344
5.0980,1184
5.1000,1056
5.1020,6785
5.1040,1664
5.1060,848
5.1080,1040
5.1100,1424
5.1120,848
5.1140,688
5.1160,1248
5.1180,1088
5.1200,1504
5.1220,1376
5.1240,976
5.1260,1056
5.1280,1536
5.1300,1248
5.1320,832
5.1340,1168
5.1360,1056
5.1380,1104
5.1400,1424
5.1420,848
5.1440,784
5.1460,1808
5.1480,1344
5.1500,880
5.1520,1840
5.1540,848
5.1560,928
5.1580,2208
5.1600,1968
5.1620,1104
5.1640,1216
5.1660,5505
5.1680,752
5.1700,1008
5.1720,1344
5.1740,1056
5.1760,1168
5.1780,1376
5.1800,816
5.1820,752
5.1840,864
5.1860,1120
5.1880,1600
5.1900,848
5.1920,1200
5.1940,1248
5.1960,1232
5.1980,1376
5.2000,960
5.2020,1328
5.2040,784
5.2060,1040
5.2080,1200
5.2100,1232
5.2120,4113
5.2140,1376
5.2160,848
5.2180,896
5.2200,992
5.2220,1312
5.2240,1280
5.2260,1328
5.2280,1456
5.2300,1200
5.2320,1296
5.2340,944
5.2360,768
5.2380,1040
5.2400,912
5.2420,1632
5.2440,1360
5.2460,1328
5.2480,864
5.2500,848
5.2520,1312
5.2540,992
5.2560,1104
5.2580,1280
5.2600,4881
5.2620,6785
5.2640,2176
5.2660,4801
5.2680,1616
5.2700,3296
5.2720,1584
5.2740,1040
5.2760,832
5.2780,1424
5.2800,848
5.2820,1536
5.2840,1232
5.2860,784
5.2880,1168
5.2900,1232
5.2920,832
5.2940,1072
5.2960,736
5.2980,784
5.3000,784
5.3020,1168
5.3040,816
5.3060,816
5.3080,1712
5.3100,1184
5.3120,1072
5.3140,1312
5.3160,832
5.3180,1008
5.3200,3136
5.3220,1376
5.3240,1248
5.3260,880
5.3280,1536
5.3300,1200
5.3320,768
5.3340,784
5.3360,1264
5.3380,3168
5.3400,1472
5.3420,1440
5.3440,1024
5.3460,1040
5.3480,1056
5.3500,912
5.3520,816
5.3540,960
5.3560,928
5.3580,1184
5.3600,1184
5.3620,1184
5.3640,3184
5.3660,2528
5.3680,1088
5.3700,1680
5.3720,816
5.3740,896
5.3760,1200
5.3780,1504
5.3800,1120
5.3820,576
5.3840,1200
5.3860,1024
5.3880,864
5.3900,1040
5.3920,912
5.3940,832
5.3960,1472
5.3980,784
5.4000,960
5.4020,1040
5.4040,1040
5.4060,944
5.4080,1152
5.4100,1120
5.4120,832
5.4140,1072
5.4160,800
5.4180,800
5.4200,720
5.4220,800
5.4240,1120
5.4260,1328
5.4280,1152
5.4300,960
5.4320,1072
5.4340,1264
5.4360,816
5.4380,736
5.4400,944
5.4420,1088
5.4440,1200
5.4460,928
5.4480,784
5.4500,608
5.4520,768
5.4540,800
5.4560,864
5.4580,1488
5.4600,1520
5.4620,1040
5.4640,1376
5.4660,1200
5.4680,1344
5.4700,1248
5.4720,960
5.4740,1568
5.4760,1056
5.4780,1408
5.4800,1328
5.4820,1024
5.4840,848
5.4860,1200
5.4880,784
5.4900,7905
5.4920,7633
5.4940,1040
5.4960,752
5.4980,2224
5.5000,1424
5.5020,1280
5.5040,656
5.5060,688
5.5080,960
5.5100,944
5.5120,1056
5.5140,912
5.5160,1168
5.5180,1568
5.5200,864
5.5220,1120
5.5240,1248
5.5260,992
5.5280,1280
5.5300,976
5.5320,704
5.5340,1888
5.5360,1248
5.5380,800
5.5400,1136
5.5420,1072
5.5440,1888
5.5460,1104
5.5480,768
5.5500,1072
5.5520,1120
5.5540,1104
5.5560,1120
5.5580,1312
5.5600,1472
5.5620,1248
5.5640,1056
5.5660,1056
5.5680,1712
5.5700,2400
5.5720,928
5.5740,1936
5.5760,5441
5.5780,1232
5.5800,1872
5.5820,1152
5.5840,672
5.5860,1536
5.5880,752
5.5900,1152
5.5920,928
5.5940,1120
5.5960,992
5.5980,1328
5.6000,1216
5.6020,976
5.6040,1536
5.6060,1024
5.6080,1088
5.6100,1200
5.6120,928
5.6140,1232
5.6160,1488
5.6180,3376
5.6200,5921
5.6220,2720
5.6240,3936
5.6260,1968
5.6280,1296
5.6300,1104
5.6320,1072
5.6340,1136
5.6360,1616
5.6380,1248
5.6400,1440
5.6420,768
5.6440,1168
5.6460,1168
5.6480,832
5.6500,1232
5.6520,1408
5.6540,896
5.6560,1264
5.6580,2384
5.6600,864
5.6620,816
5.6640,768
5.6660,1408
5.6680,1168
5.6700,1152
5.6720,656
5.6740,1360
5.6760,960
5.6780,1488
5.6800,1680
5.6820,1680
5.6840,1024
5.6860,848
5.6880,992
5.6900,1104
5.6920,1408
5.6940,976
5.6960,1280
5.6980,1408
5.7000,944
5.7020,736
5.7040,864
5.7060,1328
5.7080,1504
5.7100,1184
5.7120,1584
5.7140,2432
5.7160,2512
5.7180,1024
5.7200,1296
5.7220,1328
5.7240,4097
5.7260,5249
5.7280,1568
5.7300,1040
5.7320,1072
5.7340,1072
5.7360,976
5.7380,3040
5.7400,2320
5.7420,1184
5.7440,1488
5.7460,1040
5.7480,1088
5.7500,880
5.7520,864
5.7540,928
5.7560,944
5.7580,1088
5.7600,1040
5.7620,928
5.7640,1360
5.7660,816
5.7680,992
5.7700,1200
5.7720,816
5.7740,720
5.7760,1216
5.7780,1248
5.7800,960
5.7820,544
5.7840,1232
5.7860,1152
5.7880,1120
5.7900,800
5.7920,2208
5.7940,896
5.7960,768
5.7980,1920
5.8000,1088
5.8020,992
5.8040,1152
5.8060,1232
5.8080,1200
5.8100,992
5.8120,944
5.8140,1536
5.8160,912
5.8180,944
5.8200,4785
5.8220,4417
5.8240,1328
5.8260,1472
5.8280,832
5.8300,1200
5.8320,960
5.8340,1040
5.8360,1664
5.8380,1152
5.8400,4801
5.8420,704
5.8440,1472
5.8460,960
5.8480,768
5.8500,944
5.8520,1152
5.8540,1152
5.8560,1216
5.8580,1248
5.8600,1072
5.8620,848
5.8640,1136
5.8660,1040
5.8680,2976
5.8700,2784
5.8720,928
5.8740,1616
5.8760,896
5.8780,912
5.8800,1328
5.8820,1152
5.8840,1120
5.8860,912
5.8880,1552
5.8900,2352
5.8920,1376
5.8940,976
5.8960,1216
5.8980,976
5.9000,704
5.9020,1232
5.9040,1088
5.9060,928
5.9080,1088
5.9100,1952
5.9120,1456
5.9140,1760
5.9160,1024
5.9180,1120
5.9200,832
5.9220,928
5.9240,1344
5.9260,2240
5.9280,1760
5.9300,976
5.9320,1888
5.9340,944
5.9360,1360
5.9380,2064
5.9400,6929
5.9420,1456
5.9440,3760
5.9460,1008
5.9480,832
5.9500,832
5.9520,960
5.9540,976
5.9560,1600
5.9580,1248
5.9600,928
5.9620,1760
5.9640,1104
5.9660,976
5.9680,1328
5.9700,3296
5.9720,2448
5.9740,1184
5.9760,832
5.9780,1072
5.9800,896
5.9820,656
5.9840,976
5.9860,656
5.9880,1488
5.9900,976
5.9920,2576
5.9940,1440
5.9960,1200
5.9980,720
6.0000,1152
6.0020,944
6.0040,1472
6.0060,3408
6.0080,1760
6.0100,1024
6.0120,944
6.0140,1232
6.0160,1056
6.0180,736
6.0200,832
6.0220,1712
6.0240,2864
6.0260,3968
6.0280,1632
6.0300,1072
6.0320,1504
6.0340,5569
6.0360,2272
6.0380,2624
6.0400,1120
6.0420,1472
6.0440,2576
6.0460,2528
6.0480,2576
6.0500,5505
6.0520,3792
6.0540,1504
6.0560,1584
6.0580,832
6.0600,1840
6.0620,1056
6.0640,1520
6.0660,1200
6.0680,2304
6.0700,1248
6.0720,1312
6.0740,1808
6.0760,1120
6.0780,2096
6.0800,1456
6.0820,1216
6.0840,1952
6.0860,992
6.0880,832
6.0900,1120
6.0920,1824
6.0940,2512
6.0960,3296
6.0980,3648
6.1000,1312
6.1020,1584
6.1040,5137
6.1060,1024
6.1080,1616
6.1100,2240
6.1120,3040
6.1140,1152
6.1160,672
6.1180,3520
6.1200,1440
6.1220,4177
6.1240,1232
6.1260,1232
6.1280,1232
6.1300,1232
6.1320,1520
6.1340,2912
6.1360,976
6.1380,1328
6.1400,976
6.1420,1616
6.1440,992
6.1460,2192
6.1480,1440
6.1500,2080
6.1520,6529
6.1540,6641
6.1560,3888
6.1580,2080
6.1600,896
6.1620,2080
6.1640,2176
6.1660,2048
6.1680,2336
6.1700,992
6.1720,1408
6.1740,2592
6.1760,1456
6.1780,1376
6.1800,1536
6.1820,1232
6.1840,992
6.1860,1168
6.1880,976
6.1900,944
6.1920,1312
6.1940,1888
6.1960,1664
6.1980,1200
6.2000,8129
6.2020,2288
6.2040,4881
6.2060,1664
6.2080,1616
6.2100,768
6.2120,1424
6.2140,3280
6.2160,1088
6.2180,976
6.2200,1472
6.2220,1488
6.2240,1792
6.2260,7249
6.2280,5105
6.2300,4161
6.2320,1280
6.2340,3264
6.2360,832
6.2380,3072
6.2400,6049
6.2420,4241
6.2440,1936
6.2460,1824
6.2480,2304
6.2500,1232
6.2520,7377
6.2540,4161
6.2560,1856
6.2580,1264
6.2600,2944
6.2620,2464
6.2640,8001
6.2660,1120
6.2680,14371
6.2700,2576
6.2720,6785
6.2740,1520
6.2760,2176
6.2780,2704
6.2800,1456
6.2820,4945
6.2840,1616
6.2860,3488
6.2880,3312
6.2900,1408
6.2920,1024
6.2940,1408
6.2960,2672
6.2980,18644
6.3000,9442
6.3020,7937
6.3040,5409
6.3060,976
6.3080,7697
6.3100,9730
6.3120,12178
6.3140,8722
6.3160,9250
6.3180,2816
6.3200,8818
6.3220,5969
6.3240,2304
6.3260,6049
6.3280,5169
6.3300,9906
6.3320,5153
6.3340,3456
6.3360,3552
6.3380,1616
6.3400,2320
6.3420,3152
6.3440,11938
6.3460,5345
6.3480,5025
6.3500,4465
6.3520,6753
6.3540,1184
6.3560,4241
6.3580,5137
6.3600,12242
6.3620,6577
6.3640,1760
6.3660,9042
6.3680,816
6.3700,2192
6.3720,1104
6.3740,8194
6.3760,7681
6.3780,16099
6.3800,1408
6.3820,1360
6.3840,2272
6.3860,4289
6.3880,1296
6.3900,3424
6.3920,1136
6.3940,1264
6.3960,1056
6.3980,5553
6.4000,11154
6.4020,3520
6.4040,1184
6.4060,2864
6.4080,3104
6.4100,5889
6.4120,1040
6.4140,2496
6.4160,6721
6.4180,2848
6.4200,2352
6.4220,4897
6.4240,12162
6.4260,1968
6.4280,2832
6.4300,1632
6.4320,4385
6.4340,4321
6.4360,2816
6.4380,8177
6.4400,7505
6.4420,992
6.4440,4193
6.4460,1472
6.4480,2624
6.4500,6961
6.4520,3344
6.4540,6497
6.4560,912
6.4580,10770
6.4600,1664
6.4620,8242
6.4640,4961
6.4660,7217
6.4680,2768
6.4700,13011
6.4720,10066
6.4740,2320
6.4760,1056
6.4780,4145
6.4800,4161
6.4820,13379
6.4840,6481
6.4860,8129
6.4880,3840
6.4900,9026
6.4920,4881
6.4940,1920
6.4960,8578
6.4980,4625
6.5000,1792
6.5020,10050
6.5040,6769
6.5060,10194
6.5080,20709
6.5100,17460
6.5120,1936
6.5140,2320
6.5160,19492
6.5180,12467
6.5200,2320
6.5220,8914
6.5240,12819
6.5260,3584
6.5280,4145
6.5300,11202
6.5320,7841
6.5340,14243
6.5360,8802
6.5380,11602
6.5400,1584
6.5420,2640
6.5440,5537
6.5460,8914
6.5480,2288
6.5500,1584
6.5520,3312
6.5540,3936
6.5560,4161
6.5580,8129
6.5600,2000
6.5620,9858
6.5640,1536
6.5660,1152
6.5680,9186
6.5700,3216
6.5720,3008
6.5740,5585
6.5760,2496
6.5780,1312
6.5800,2080
6.5820,1744
6.5840,7057
6.5860,11138
6.5880,31943
6.5900,10546
6.5920,1936
6.5940,2608
6.5960,5393
6.5980,3072
6.6000,13523
6.6020,1696
6.6040,1584
6.6060,1888
6.6080,3232
6.6100,3248
6.6120,3152
6.6140,19092
6.6160,16436
6.6180,2848
6.6200,8210
6.6220,26262
6.6240,6305
6.6260,4000
6.6280,1248
6.6300,1920
6.6320,2304
6.6340,1792
6.6360,3072
6.6380,944
6.6400,8770
6.6420,5089
6.6440,4817
6.6460,15203
6.6480,8177
6.6500,3216
6.6520,4945
6.6540,11266
6.6560,3248
6.6580,1616
6.6600,2368
6.6620,16804
6.6640,1328
6.6660,2736
6.6680,2864
6.6700,8097
6.6720,3920
6.6740,3104
6.6760,1568
6.6780,5217
6.6800,3168
6.6820,18900
6.6840,11362
6.6860,1024
6.6880,1072
6.6900,1824
6.6920,4064
6.6940,8177
6.6960,2224
6.6980,9410
6.7000,2368
6.7020,3776
6.7040,6545
6.7060,1680
6.7080,7041
6.7100,1168
6.7120,1904
6.7140,1952
6.7160,4401
6.7180,6049
6.7200,15667
6.7220,4016
6.7240,31783
6.7260,2080
6.7280,6817
6.7300,30263
6.7320,11010
6.7340,17732
6.7360,1328
6.7380,9378
6.7400,1280
6.7420,3616
6.7440,9538
6.7460,2688
6.7480,1680
6.7500,3280
6.7520,12691
6.7540,18516
6.7560,784
6.7580,16227
6.7600,13155
6.7620,6977
6.7640,1216
6.7660,6817
6.7680,1680
6.7700,6961
6.7720,1712
6.7740,13187
6.7760,21637
6.7780,1152
6.7800,18116
6.7820,1424
6.7840,7521
6.7860,4625
6.7880,1664
6.7900,8177
6.7920,17012
6.7940,7553
6.7960,12002
6.7980,2512
6.8000,22773
6.8020,4801
6.8040,8642
6.8060,5745
6.8080,5585
6.8100,11618
6.8120,6993
6.8140,2656
6.8160,3104
6.8180,1984
6.8200,22853
6.8220,15251
6.8240,6417
6.8260,4561
6.8280,1920
6.8300,15715
6.8320,5985
6.8340,1856
6.8360,9154
6.8380,7425
6.8400,22277
6.8420,8033
6.8440,2528
6.8460,8177
6.8480,1936
6.8500,2096
6.8520,5985
6.8540,9122
6.8560,3088
6.8580,12851
6.8600,2432
6.8620,4097
6.8640,3600
6.8660,7297
6.8680,2880
6.8700,15091
6.8720,30183
6.8740,1552
6.8760,25542
6.8780,8177
6.8800,9858
6.8820,1184
6.8840,22789
6.8860,12835
6.8880,6433
6.8900,7809
6.8920,8530
6.8940,25446
6.8960,21797
6.8980,6385
6.9000,1824
6.9020,18532
6.9040,23813
6.9060,15827
6.9080,6481
6.9100,6193
6.9120,2720
6.9140,8226
6.9160,1696
6.9180,12098
6.9200,13763
6.9220,10018
6.9240,12210
6.9260,10274
6.9280,24293
6.9300,1776
6.9320,22917
6.9340,20452
6.9360,40873
6.9380,7649
6.9400,22245
6.9420,1936
6.9440,5617
6.9460,21797
6.9480,20420
6.9500,1424
6.9520,17812
6.9540,29623
6.9560,8930
6.9580,3728
6.9600,848
6.9620,11234
6.9640,26182
6.9660,3008
6.9680,30791
6.9700,3808
6.9720,20068
6.9740,5537
6.9760,13251
6.9780,15635
6.9800,18884
6.9820,2080
6.9840,1648
6.9860,1264
6.9880,2752
6.9900,8546
6.9920,11618
6.9940,5809
6.9960,11410
6.9980,12867
7.0000,7729
7.0020,10658
7.0040,13155
7.0060,9330
7.0080,1824
7.0100,37561
7.0120,23749
7.0140,1792
7.0160,1696
7.0180,2736
7.0200,16355
7.0220,31303
7.0240,37385
7.0260,49564
7.0280,24485
7.0300,1744
7.0320,3120
7.0340,4641
7.0360,34520
7.0380,11842
7.0400,18676
7.0420,2432
7.0440,3168
7.0460,10690
7.0480,12082
7.0500,10162
7.0520,6577
7.0540,10530
7.0560,12515
7.0580,2432
7.0600,1424
7.0620,10498
7.0640,6497
7.0660,15827
7.0680,6881
7.0700,4817
7.0720,3456
7.0740,9058
7.0760,15827
7.0780,14659
7.0800,6545
7.0820,9570
7.0840,6145
7.0860,8914
7.0880,3600
7.0900,1600
7.0920,9442
7.0940,3200
7.0960,14739
7.0980,21797
7.1000,7745
7.1020,11362
7.1040,2368
7.1060,13443
7.1080,8594
7.1100,10578
7.1120,9026
7.1140,11922
7.1160,9906
7.1180,3536
7.1200,1920
7.1220,17940
7.1240,2336
7.1260,15315
7.1280,7249
7.1300,6353
7.1320,1712
7.1340,16404
7.1360,3504
7.1380,6801
7.1400,2368
7.1420,2096
7.1440,976
7.1460,4401
7.1480,18548
7.1500,19700
7.1520,21141
7.1540,1936
7.1560,11186
7.1580,12867
7.1600,19732
7.1620,1584
7.1640,3200
7.1660,2064
7.1680,1104
7.1700,3680
7.1720,7457
7.1740,1264
7.1760,1424
7.1780,6353
7.1800,8850
7.1820,14419
7.1840,13827
7.1860,5569
7.1880,3456
7.1900,1120
7.1920,2576
7.1940,6785
7.1960,8594
7.1980,2624
7.2000,3296
7.2020,4241
7.2040,7985
7.2060,1616
7.2080,4225
7.2100,19780
7.2120,1552
7.2140,3840
7.2160,21605
7.2180,10194
7.2200,18372
7.2220,17668
7.2240,12563
7.2260,24774
7.2280,5265
7.2300,4657
7.2320,10034
7.2340,2048
7.2360,27958
7.2380,22421
7.2400,6161
7.2420,11682
7.2440,1472
7.2460,7889
7.2480,1696
7.2500,12515
7.2520,4545
7.2540,1712
7.2560,2000
7.2580,3120
7.2600,1296
7.2620,3088
7.2640,1136
7.2660,7425
7.2680,4497
7.2700,4897
7.2720,1840
7.2740,22181
7.2760,2512
7.2780,3552
7.2800,11682
7.2820,1488
7.2840,4529
7.2860,2512
7.2880,9698
7.2900,2208
7.2920,1440
7.2940,1408
7.2960,1840
7.2980,4529
7.3000,9986
7.3020,3488
7.3040,11394
7.3060,3424
7.3080,2304
7.3100,1040
7.3120,12050
7.3140,2768
7.3160,18884
7.3180,1488
7.3200,5953
7.3220,3632
7.3240,1248
7.3260,1744
7.3280,14019
7.3300,3328
7.3320,19172
7.3340,2224
7.3360,4497
7.3380,6849
7.3400,2992
7.3420,6225
7.3440,7249
7.3460,5153
7.3480,5585
7.3500,1440
7.3520,7617
7.3540,1360
7.3560,24389
7.3580,1808
7.3600,24565
7.3620,17236
7.3640,6337
7.3660,8402
7.3680,6881
7.3700,7617
7.3720,3024
7.3740,5393
7.3760,6529
7.3780,12851
7.3800,2208
7.3820,2000
7.3840,14819
7.3860,1072
7.3880,1392
7.3900,2464
7.3920,3616
7.3940,2048
7.3960,6273
7.3980,17508
7.4000,8946
7.4020,14403
7.4040,1488
7.4060,16179
7.4080,1248
7.4100,1440
7.4120,3776
7.4140,40409
7.4160,22789
7.4180,8081
7.4200,14563
7.4220,6737
7.4240,15379
7.4260,11554
7.4280,3568
7.4300,23813
7.4320,13635
7.4340,4097
7.4360,5089
7.4380,1472
7.4400,3072
7.4420,3408
7.4440,9634
7.4460,1344
7.4480,4321
7.4500,12258
7.4520,1856
7.4540,2576
7.4560,3280
7.4580,15315
7.4600,2816
7.4620,7969
7.4640,7153
7.4660,7057
7.4680,1648
7.4700,4113
7.4720,13939
7.4740,1872
7.4760,4016
7.4780,12178
7.4800,6113
7.4820,5025
7.4840,3488
7.4860,4833
7.4880,1808
7.4900,17236
7.4920,8690
7.4940,1856
7.4960,4545
7.4980,16275
7.5000,1760
7.5020,4993
7.5040,12307
7.5060,16147
7.5080,9378
7.5100,3632
7.5120,11106
7.5140,11218
7.5160,3792
7.5180,12931
7.5200,1184
7.5220,1984
7.5240,2192
7.5260,1552
7.5280,9298
7.5300,1408
7.5320,2528
7.5340,6817
7.5360,8946
7.5380,2752
7.5400,3712
7.5420,6721
7.5440,11426
7.5460,18964
7.5480,6993
7.5500,4337
7.5520,6913
7.5540,1792
7.5560,3808
7.5580,5089
7.5600,3280
7.5620,4064
7.5640,14675
7.5660,4305
7.5680,1216
7.5700,17620
7.5720,15027
7.5740,1808
7.5760,1984
7.5780,3472
7.5800,1248
7.5820,5425
7.5840,21461
7.5860,8914
7.5880,1344
7.5900,8898
7.5920,4689
7.5940,5969
7.5960,2384
7.5980,2864
7.6000,15827
7.6020,3040
7.6040,12323
7.6060,5953
7.6080,1856
7.6100,4080
7.6120,6289
7.6140,8930
7.6160,8145
7.6180,8594
7.6200,4833
7.6220,1632
7.6240,18484
7.6260,16099
7.6280,6177
7.6300,11362
7.6320,5969
7.6340,13955
7.6360,2928
7.6380,1712
7.6400,8177
7.6420,4945
7.6440,15795
7.6460,18388
7.6480,6721
7.6500,3936
7.6520,17828
7.6540,16452
7.6560,9218
7.6580,4561
7.6600,19044
7.6620,11954
7.6640,2192
7.6660,8001
7.6680,6033
7.6700,1696
7.6720,3024
7.6740,2128
7.6760,992
7.6780,1072
7.6800,656
7.6820,1632
7.6840,1152
7.6860,9346
7.6880,2752
7.6900,4897
7.6920,2352
7.6940,13459
7.6960,2944
7.6980,19236
7.7000,7505
7.7020,1360
7.7040,15027
7.7060,12178
7.7080,2496
7.7100,6753
7.7120,4305
7.7140,7649
7.7160,11794
7.7180,9122
7.7200,11090
7.7220,3872
7.7240,1552
7.7260,14355
7.7280,1712
7.7300,5713
7.7320,12947
7.7340,14899
7.7360,1680
7.7380,5889
7.7400,1184
7.7420,6385
7.7440,13219
7.7460,2944
7.7480,1152
7.7500,8642
7.7520,1152
7.7540,14579
7.7560,7313
7.7580,2464
7.7600,8001
7.7620,928
7.7640,15571
7.7660,2896
7.7680,14099
7.7700,1456
7.7720,12899
7.7740,7201
7.7760,1520
7.7780,5681
7.7800,6433
7.7820,5585
7.7840,1824
7.7860,1840
7.7880,2624
7.7900,13011
7.7920,1808
7.7940,3104
7.7960,1312
7.7980,1024
7.8000,13827
7.8020,12098
7.8040,17588
7.8060,2336
7.8080,29639
7.8100,15299
7.8120,5025
7.8140,9186
7.8160,5857
7.8180,2400
7.8200,23989
7.8220,11906
7.8240,8514
7.8260,6529
7.8280,1600
7.8300,1184
7.8320,12114
7.8340,2176
7.8360,2112
7.8380,3408
7.8400,2704
7.8420,4129
7.8440,1328
7.8460,6145
7.8480,5185
7.8500,1440
7.8520,6321
7.8540,5153
7.8560,8706
7.8580,6673
7.8600,15923
7.8620,12531
7.8640,2240
7.8660,1296
7.8680,1856
7.8700,9122
7.8720,2160
7.8740,16195
7.8760,5297
7.8780,1888
7.8800,16852
7.8820,1728
7.8840,960
7.8860,1472
7.8880,3072
7.8900,1536
7.8920,4865
7.8940,3792
7.8960,2944
7.8980,1712
7.9000,3072
7.9020,10882
7.9040,2448
7.9060,912
7.9080,1296
7.9100,6305
7.9120,2608
7.9140,14035
7.9160,6209
7.9180,7089
7.9200,2352
7.9220,4161
7.9240,4289
7.9260,6241
7.9280,6609
7.9300,7665
7.9320,4353
7.9340,5041
7.9360,1488
7.9380,2816
7.9400,17012
7.9420,31671
7.9440,2208
7.9460,6161
7.9480,1120
7.9500,1104
7.9520,1616
7.9540,2384
7.9560,14403
7.9580,2368
7.9600,2480
7.9620,24822
7.9640,3248
7.9660,5665
7.9680,2400
7.9700,1664
7.9720,6017
7.9740,18948
7.9760,13459
7.9780,17236
7.9800,1360
7.9820,1600
7.9840,4753
7.9860,12419
7.9880,10034
7.9900,1040
7.9920,2352
7.9940,14883
7.9960,6881
7.9980,13283
8.0000,5889
8.0020,1216
8.0040,2320
8.0060,5025
8.0080,13955
8.0100,17908
8.0120,8482
8.0140,2240
8.0160,7217
8.0180,9170
8.0200,2496
8.0220,6593
8.0240,11362
8.0260,2800
8.0280,3872
8.0300,3728
8.0320,9234
8.0340,8177
8.0360,7073
8.0380,12931
8.0400,5649
8.0420,1520
8.0440,2608
8.0460,2160
8.0480,12467
8.0500,9810
8.0520,5217
8.0540,5041
8.0560,3520
8.0580,1472
8.0600,8850
8.0620,2768
8.0640,1184
8.0660,2080
8.0680,2320
8.0700,5137
8.0720,13203
8.0740,4705
8.0760,4353
8.0780,11602
8.0800,3984
8.0820,2208
8.0840,8786
8.0860,6193
8.0880,1088
8.0900,1280
8.0920,7937
8.0940,26006
8.0960,14611
8.0980,13187
8.1000,5329
8.1020,16852
8.1040,2080
8.1060,8450
8.1080,2624
8.1100,7121
8.1120,1456
8.1140,2512
8.1160,6529
8.1180,1616
8.1200,17188
8.1220,11170
8.1240,9426
8.1260,3264
8.1280,19876
8.1300,4881
8.1320,2080
8.1340,5345
8.1360,4913
8.1380,11938
8.1400,1312
8.1420,6401
8.1440,3296
8.1460,6897
8.1480,1824
8.1500,7921
8.1520,4209
8.1540,3136
8.1560,1648
8.1580,8754
8.1600,1456
8.1620,1744
8.1640,1984
8.1660,2512
8.1680,7665
8.1700,6961
8.1720,4193
8.1740,14947
8.1760,8194
8.1780,1552
8.1800,1456
8.1820,3024
8.1840,3184
8.1860,832
8.1880,3696
8.1900,33080
8.1920,17236
8.1940,9314
8.1960,20933
8.1980,3664
8.2000,4945
8.2020,3376
8.2040,6577
8.2060,6961
8.2080,13875
8.2100,12883
8.2120,7873
8.2140,2128
8.2160,1808
8.2180,4801
8.2200,1440
8.2220,8177
8.2240,4609
8.2260,2384
8.2280,1552
8.2300,2608
8.2320,2432
8.2340,13395
8.2360,11938
8.2380,11714
8.2400,1248
8.2420,9762
8.2440,7601
8.2460,7969
8.2480,2336
8.2500,4865
8.2520,27078
8.2540,992
8.2560,10194
8.2580,6097
8.2600,8706
8.2620,9602
8.2640,6065
8.2660,12579
8.2680,3456
8.2700,992
8.2720,8274
8.2740,8658
8.2760,2768
8.2780,13331
8.2800,1440
8.2820,1440
8.2840,1072
8.2860,15203
8.2880,2528
8.2900,4561
8.2920,16019
8.2940,5521
8.2960,1744
8.2980,8898
8.3000,5761
8.3020,7521
8.3040,1536
8.3060,21845
8.3080,1680
8.3100,9250
8.3120,6417
8.3140,1200
8.3160,2480
8.3180,2240
8.3200,2896
8.3220,6897
8.3240,9170
8.3260,12435
8.3280,13907
8.3300,4097
8.3320,1728
8.3340,3104
8.3360,3536
8.3380,4032
8.3400,9170
8.3420,14851
8.3440,17412
8.3460,10002
8.3480,1504
8.3500,5217
8.3520,1728
8.3540,1552
8.3560,9042
8.3580,10658
8.3600,9138
8.3620,12531
8.3640,7089
8.3660,1712
8.3680,2880
8.3700,1376
8.3720,5217
8.3740,22165
8.3760,3232
8.3780,9730
8.3800,1712
8.3820,1200
8.3840,4000
8.3860,1040
8.3880,17716
8.3900,7553
8.3920,5153
8.3940,12371
8.3960,1200
8.3980,1568
8.4000,1952
8.4020,2016
8.4040,3088
8.4060,16468
8.4080,6625
8.4100,4609
8.4120,9442
8.4140,1440
8.4160,1728
8.4180,11522
8.4200,10642
8.4220,9250
8.4240,1456
8.4260,8017
8.4280,1280
8.4300,3792
8.4320,9122
8.4340,6609
8.4360,1392
8.4380,11698
8.4400,1456
8.4420,2256
8.4440,9986
8.4460,3424
8.4480,5425
8.4500,3328
8.4520,13363
8.4540,1168
8.4560,18564
8.4580,3920
8.4600,19428
8.4620,15075
8.4640,5441
8.4660,2832
8.4680,9954
8.4700,10034
8.4720,6593
8.4740,8706
8.4760,12114
8.4780,1632
8.4800,9666
8.4820,1248
8.4840,1904
8.4860,8722
8.4880,1792
8.4900,1584
8.4920,3280
8.4940,1232
8.4960,23173
8.4980,1824
8.5000,4032
8.5020,13395
8.5040,4673
8.5060,5009
8.5080,11138
8.5100,11298
8.5120,10578
8.5140,3552
8.5160,20741
8.5180,1216
8.5200,896
8.5220,1792
8.5240,2608
8.5260,976
8.5280,2128
8.5300,2160
8.5320,9474
8.5340,13491
8.5360,4241
8.5380,976
8.5400,6465
8.5420,16740
8.5440,8354
8.5460,800
8.5480,3280
8.5500,2304
8.5520,912
8.5540,11794
8.5560,2896
8.5580,9570
8.5600,2496
8.5620,1312
8.5640,1488
8.5660,17988
8.5680,12979
8.5700,1728
8.5720,928
8.5740,2000
8.5760,3488
8.5780,16420
8.5800,14499
8.5820,7809
8.5840,1920
8.5860,2672
8.5880,992
8.5900,6225
8.5920,5089
8.5940,4897
8.5960,4609
8.5980,4577
8.6000,6161
8.6020,1376
8.6040,3424
8.6060,1840
8.6080,17188
8.6100,13139
8.6120,23157
8.6140,9554
8.6160,23109
8.6180,2208
8.6200,1456
8.6220,4401
8.6240,22485
8.6260,1808
8.6280,15139
8.6300,11938
8.6320,6881
8.6340,1824
8.6360,1440
8.6380,7041
8.6400,1232
8.6420,7905
8.6440,5537
8.6460,1232
8.6480,13891
8.6500,8626
8.6520,1696
8.6540,5905
8.6560,6161
8.6580,13459
8.6600,3632
8.6620,3264
8.6640,3536
8.6660,6721
8.6680,18212
8.6700,1696
8.6720,6481
8.6740,1872
8.6760,2752
8.6780,1744
8.6800,9266
8.6820,24501
8.6840,6641
8.6860,3376
8.6880,3376
8.6900,2640
8.6920,18884
8.6940,2256
8.6960,2800
8.6980,12323
8.7000,2352
8.7020,1376
8.7040,4209
8.7060,18852
8.7080,9602
8.7100,6817
8.7120,7905
8.7140,3520
8.7160,2976
8.7180,3200
8.7200,1456
8.7220,1168
8.7240,15251
8.7260,6097
8.7280,4113
8.7300,7025
8.7320,12787
8.7340,2640
8.7360,8706
8.7380,3504
8.7400,4273
8.7420,2720
8.7440,7697
8.7460,1280
8.7480,2832
8.7500,7489
8.7520,6321
8.7540,9874
8.7560,6065
8.7580,17668
8.7600,1616
8.7620,6161
8.7640,15699
8.7660,6769
8.7680,1616
8.7700,14387
8.7720,1888
8.7740,1968
8.7760,1376
8.7780,7889
8.7800,4321
8.7820,2512
8.7840,11218
8.7860,2752
8.7880,976
8.7900,3888
8.7920,11554
8.7940,2512
8.7960,8097
8.7980,11218
8.8000,17940
8.8020,3184
8.8040,1712
8.8060,2736
8.8080,1712
8.8100,2576
8.8120,13267
8.8140,4016
8.8160,976
8.8180,3616
8.8200,3312
8.8220,5457
8.8240,3328
8.8260,8258
8.8280,18900
8.8300,3808
8.8320,4129
8.8340,2208
8.8360,2176
8.8380,14995
8.8400,1872
8.8420,12947
8.8440,1616
8.8460,1344
8.8480,1200
8.8500,928
8.8520,4833
8.8540,10450
8.8560,3888
8.8580,10850
8.8600,11346
8.8620,16131
8.8640,1936
8.8660,1248
8.8680,4641
8.8700,5825
8.8720,944
8.8740,2768
8.8760,2256
8.8780,2256
8.8800,5457
8.8820,1488
8.8840,10738
8.8860,4289
8.8880,7825
8.8900,8322
8.8920,21285
8.8940,1440
8.8960,2096
8.8980,10034
8.9000,9298
8.9020,1312
8.9040,6433
8.9060,6913
8.9080,12307
8.9100,1280
8.9120,2400
8.9140,4465
8.9160,3344
8.9180,4561
8.9200,2256
8.9220,2704
8.9240,10370
8.9260,1008
8.9280,11282
8.9300,12547
8.9320,2912
8.9340,3600
8.9360,1648
8.9380,3472
8.9400,13027
8.9420,7985
8.9440,6577
8.9460,1040
8.9480,1632
8.9500,5921
8.9520,14403
8.9540,3040
8.9560,3280
8.9580,1760
8.9600,1296
8.9620,15683
8.9640,8065
8.9660,1296
8.9680,1888
8.9700,9330
8.9720,19332
8.9740,2112
8.9760,19380
8.9780,4945
8.9800,2816
8.9820,1488
8.9840,2432
8.9860,5313
8.9880,8338
8.9900,6209
8.9920,10946
8.9940,2432
8.9960,6097
8.9980,3776
9.0000,6225
9.0020,8418
9.0040,8498
9.0060,5665
9.0080,1216
9.0100,2640
9.0120,2400
9.0140,9490
9.0160,6321
9.0180,4385
9.0200,3552
9.0220,5441
9.0240,2976
9.0260,4000
9.0280,2896
9.0300,3552
9.0320,1824
9.0340,11538
9.0360,5393
9.0380,2432
9.0400,10258
9.0420,7777
9.0440,1344
9.0460,14131
9.0480,11618
9.0500,3792
9.0520,2048
9.0540,6161
9.0560,15571
9.0580,12627
9.0600,8898
9.0620,3504
9.0640,3680
9.0660,2080
9.0680,23029
9.0700,2640
9.0720,1616
9.0740,9218
9.0760,1744
9.0780,1120
9.0800,5057
9.0820,1616
9.0840,2144
9.0860,5649
9.0880,3936
9.0900,2192
9.0920,11058
9.0940,5761
9.0960,1072
9.0980,6049
9.1000,3008
9.1020,5345
9.1040,6417
9.1060,10802
9.1080,2656
9.1100,3120
9.1120,16900
9.1140,976
9.1160,9250
9.1180,12114
9.1200,4737
9.1220,5073
9.1240,1408
9.1260,12178
9.1280,2368
9.1300,10674
9.1320,14051
9.1340,1072
9.1360,1504
9.1380,6145
9.1400,1312
9.1420,9938
9.1440,10210
9.1460,3200
9.1480,7073
9.1500,11730
9.1520,15955
9.1540,4817
9.1560,13747
9.1580,2560
9.1600,1856
9.1620,1408
9.1640,1312
9.1660,3936
9.1680,9730
9.1700,8722
9.1720,1664
9.1740,11010
9.1760,2192
9.1780,6465
9.1800,8065
9.1820,1536
9.1840,1504
9.1860,1712
9.1880,19092
9.1900,6401
9.1920,2096
9.1940,10722
9.1960,7377
9.1980,1440
9.2000,15891
9.2020,5633
9.2040,2720
9.2060,2128
9.2080,6097
9.2100,9042
9.2120,1200
9.2140,1040
9.2160,16580
9.2180,1024
9.2200,5297
9.2220,5265
9.2240,1200
9.2260,1664
9.2280,11538
9.2300,6017
9.2320,3728
9.2340,5073
9.2360,14691
9.2380,17236
9.2400,1344
9.2420,1424
9.2440,1152
9.2460,3584
9.2480,3040
9.2500,6865
9.2520,1584
9.2540,6065
9.2560,9554
9.2580,3584
9.2600,4289
9.2620,22821
9.2640,9426
9.2660,3008
9.2680,1856
9.2700,1408
9.2720,24037
9.2740,6369
9.2760,8194
9.2780,4000
9.2800,26630
9.2820,6065
9.2840,14691
9.2860,11058
9.2880,3472
9.2900,13107
9.2920,1472
9.2940,2144
9.2960,3536
9.2980,4257
9.3000,1744
9.3020,9042
9.3040,1840
9.3060,12579
9.3080,2752
9.3100,1232
9.3120,13571
9.3140,5009
9.3160,1216
9.3180,1808
9.3200,720
9.3220,3152
9.3240,5457
9.3260,19204
9.3280,6497
9.3300,7617
9.3320,7297
9.3340,3664
9.3360,1488
9.3380,1312
9.3400,5217
9.3420,12851
9.3440,1424
9.3460,28310
9.3480,1360
9.3500,7569
9.3520,1216
9.3540,2192
9.3560,24598
9.3580,16740
9.3600,15827
9.3620,4785
9.3640,2320
9.3660,14755
9.3680,3664
9.3700,4929
9.3720,2464
9.3740,6609
9.3760,2720
9.3780,18260
9.3800,1968
9.3820,1456
9.3840,8258
9.3860,7921
9.3880,7809
9.3900,3744
9.3920,7073
9.3940,7313
9.3960,3744
9.3980,1840
9.4000,1504
9.4020,2320
9.4040,1072
9.4060,17556
9.4080,1040
9.4100,3264
9.4120,1072
9.4140,4401
9.4160,2352
9.4180,5313
9.4200,17412
9.4220,5761
9.4240,15075
9.4260,21685
9.4280,2304
9.4300,7169
9.4320,7665
9.4340,2144
9.4360,8690
9.4380,1760
9.4400,992
9.4420,8578
9.4440,1584
9.4460,13827
9.4480,1664
9.4500,11042
9.4520,5409
9.4540,12931
9.4560,16948
9.4580,24934
9.4600,1296
9.4620,4945
9.4640,2720
9.4660,8754
9.4680,1184
9.4700,1184
9.4720,5201
9.4740,1120
9.4760,1696
9.4780,1056
9.4800,8161
9.4820,1536
9.4840,10194
9.4860,8001
9.4880,1280
9.4900,6545
9.4920,5761
9.4940,1232
9.4960,2096
9.4980,2080
9.5000,2192
9.5020,17828
9.5040,14211
9.5060,1504
9.5080,12130
9.5100,1168
9.5120,7233
9.5140,4113
9.5160,5649
9.5180,27910
9.5200,3872
9.5220,15747
9.5240,30519
9.5260,4481
9.5280,13475
9.5300,2016
9.5320,5297
9.5340,4513
9.5360,7889
9.5380,1536
9.5400,4785
9.5420,2656
9.5440,2256
9.5460,4401
9.5480,10642
9.5500,9186
9.5520,1408
9.5540,3392
9.5560,2048
9.5580,2240
9.5600,6817
9.5620,7009
9.5640,1968
9.5660,1232
9.5680,2352
9.5700,7361
9.5720,14451
9.5740,11970
9.5760,7361
9.5780,7137
9.5800,6289
9.5820,6113
9.5840,8690
9.5860,7377
9.5880,4353
9.5900,1120
9.5920,14371
9.5940,3344
9.5960,1312
9.5980,6545
9.6000,1376
9.6020,20837
9.6040,8145
9.6060,15715
9.6080,1424
9.6100,14227
9.6120,912
9.6140,1248
9.6160,4449
9.6180,8338
9.6200,5377
9.6220,928
9.6240,1584
9.6260,1536
9.6280,1440
9.6300,16772
9.6320,5537
9.6340,15907
9.6360,5905
9.6380,3328
9.6400,1232
9.6420,4193
9.6440,4241
9.6460,2208
9.6480,4545
9.6500,13747
9.6520,17796
9.6540,11042
9.6560,8177
9.6580,1456
9.6600,2832
9.6620,2400
9.6640,12883
9.6660,8177
9.6680,1248
9.6700,7697
9.6720,11314
9.6740,1728
9.6760,1344
9.6780,8770
9.6800,2560
9.6820,976
9.6840,4417
9.6860,1696
9.6880,1776
9.6900,7761
9.6920,1600
9.6940,4513
9.6960,2592
9.6980,992
9.7000,1936
9.7020,1424
9.7040,1376
9.7060,8001
9.7080,1680
9.7100,3168
9.7120,3872
9.7140,4561
9.7160,12515
9.7180,12435
9.7200,1872
9.7220,1968
9.7240,15011
9.7260,9666
9.7280,8161
9.7300,1408
9.7320,7729
9.7340,1552
9.7360,864
9.7380,1504
9.7400,8818
9.7420,9698
9.7440,5665
9.7460,9298
9.7480,1280
9.7500,6705
9.7520,2080
9.7540,2336
9.7560,4577
9.7580,16980
9.7600,3136
9.7620,11842
9.7640,14771
9.7660,11922
9.7680,816
9.7700,11554
9.7720,848
9.7740,1216
9.7760,10002
9.7780,3760
9.7800,1920
9.7820,1696
9.7840,11618
9.7860,1600
9.7880,13107
9.7900,9954
9.7920,13363
9.7940,6225
9.7960,4064
9.7980,2640
9.8000,7009
9.8020,3840
9.8040,5937
9.8060,2080
9.8080,12627
9.8100,2000
9.8120,7905
9.8140,10386
9.8160,9058
9.8180,5569
9.8200,1808
9.8220,11170
9.8240,24021
9.8260,1072
9.8280,3680
9.8300,1808
9.8320,1376
9.8340,8177
9.8360,10210
9.8380,14867
9.8400,3408
9.8420,1536
9.8440,1344
9.8460,11106
9.8480,17364
9.8500,19204
9.8520,3840
9.8540,2704
9.8560,5249
9.8580,7825
9.8600,1584
9.8620,4913
9.8640,8706
9.8660,2448
9.8680,1776
9.8700,1584
9.8720,1168
9.8740,5441
9.8760,7857
9.8780,1248
9.8800,8434
9.8820,3040
9.8840,19140
9.8860,8610
9.8880,16179
9.8900,7233
9.8920,2096
9.8940,3520
9.8960,12899
9.8980,3248
9.9000,4161
9.9020,1424
9.9040,6673
9.9060,13443
9.9080,1440
9.9100,14723
9.9120,10850
9.9140,11330
9.9160,1376
9.9180,10466
9.9200,8946
9.9220,7249
9.9240,5249
9.9260,5409
9.9280,5521
9.9300,5905
9.9320,6161
9.9340,3264
9.9360,4497
9.9380,8514
9.9400,2192
9.9420,5249
9.9440,6721
9.9460,1280
9.9480,8338
9.9500,11234
9.9520,8482
9.9540,4097
9.9560,1040
9.9580,7617
9.9600,2304
9.9620,4097
9.9640,7169
9.9660,1120
9.9680,2512
9.9700,3600
9.9720,3424
9.9740,10082
9.9760,2432
9.9780,5505
9.9800,6481
9.9820,6353
9.9840,6065
9.9860,17940
9.9880,1024
9.9900,1936
9.9920,1968
9.9940,1376
9.9960,4689
9.9980,12979
10.0000,4849
10.0020,5969
10.0040,1696
10.0060,1552
10.0080,10818
10.0100,1648
10.0120,9154
10.0140,2384
10.0160,12146
10.0180,1696
10.0200,4241
10.0220,4513
10.0240,1216
10.0260,10130
10.0280,3232
10.0300,8177
10.0320,1520
10.0340,1408
10.0360,3488
10.0380,6033
10.0400,1872
10.0420,4305
10.0440,3296
10.0460,2144
10.0480,9730
10.0500,13331
10.0520,6193
10.0540,1472
10.0560,4321
10.0580,14755
10.0600,1344
10.0620,2112
10.0640,8194
10.0660,10978
10.0680,9570
10.0700,2208
10.0720,1664
10.0740,1552
10.0760,2080
10.0780,6449
10.0800,4817
10.0820,10498
10.0840,5777
10.0860,3744
10.0880,8145
10.0900,4801
10.0920,13763
10.0940,7041
10.0960,9874
10.0980,2160
10.1000,1184
10.1020,1488
10.1040,13987
10.1060,21349
10.1080,2512
10.1100,1472
10.1120,1568
10.1140,6241
10.1160,12611
10.1180,1536
10.1200,12291
10.1220,41930
10.1240,9170
10.1260,1296
10.1280,5873
10.1300,20068
10.1320,3168
10.1340,1184
10.1360,5889
10.1380,3072
10.1400,3664
10.1420,4897
10.1440,1552
10.1460,1104
10.1480,5905
10.1500,1664
10.1520,8850
10.1540,1664
10.1560,2080
10.1580,3776
10.1600,3824
10.1620,1200
10.1640,15635
10.1660,6561
10.1680,1184
10.1700,16532
10.1720,7121
10.1740,34792
10.1760,1440
10.1780,6321
10.1800,2976
10.1820,1456
10.1840,16147
10.1860,5921
10.1880,1552
10.1900,13859
10.1920,1120
10.1940,3616
10.1960,2016
10.1980,26118
10.2000,1104
10.2020,14515
10.2040,14979
10.2060,7665
10.2080,1936
10.2100,15971
10.2120,2880
10.2140,3328
10.2160,10338
10.2180,2320
10.2200,1280
10.2220,4657
10.2240,8898
10.2260,9010
10.2280,6177
10.2300,17220
10.2320,1504
10.2340,11218
10.2360,14691
10.2380,2624
10.2400,19124
10.2420,6849
10.2440,1632
10.2460,12739
10.2480,8402
10.2500,8177
10.2520,14035
10.2540,13027
10.2560,848
10.2580,4449
10.2600,3104
10.2620,9378
10.2640,1168
10.2660,5089
10.2680,5937
10.2700,7297
10.2720,2704
10.2740,9794
10.2760,4705
10.2780,1168
10.2800,15763
10.2820,1168
10.2840,7873
10.2860,9234
10.2880,2848
10.2900,4897
10.2920,3760
10.2940,2464
10.2960,7841
10.2980,8322
10.3000,2784
10.3020,1968
10.3040,1424
10.3060,960
10.3080,3664
10.3100,6193
10.3120,4000
10.3140,1536
10.3160,4721
10.3180,7953
10.3200,9474
10.3220,8658
10.3240,11922
10.3260,1744
10.3280,6225
10.3300,4273
10.3320,1632
10.3340,1408
10.3360,3600
10.3380,8658
10.3400,6369
10.3420,11794
10.3440,14899
10.3460,11170
10.3480,3344
10.3500,1536
10.3520,4177
10.3540,2544
10.3560,1408
10.3580,3232
10.3600,1312
10.3620,3232
10.3640,1696
10.3660,1504
10.3680,1280
10.3700,3600
10.3720,4097
10.3740,14515
10.3760,5169
10.3780,2592
10.3800,4145
10.3820,3072
10.3840,2288
10.3860,13123
10.3880,6433
10.3900,928
10.3920,13859
10.3940,16003
10.3960,9010
10.3980,1584
10.4000,816
10.4020,7745
10.4040,3264
10.4060,2480
10.4080,2112
10.4100,8226
10.4120,2272
10.4140,3872
10.4160,4032
10.4180,5137
10.4200,4865
10.4220,1504
10.4240,3376
10.4260,1376
10.4280,6833
10.4300,3408
10.4320,1360
10.4340,2288
10.4360,1296
10.4380,4753
10.4400,13491
10.4420,2048
10.4440,1440
10.4460,1776
10.4480,2240
10.4500,4433
10.4520,1408
10.4540,2256
10.4560,2064
10.4580,3392
10.4600,1200
10.4620,2320
10.4640,976
10.4660,1472
10.4680,1184
10.4700,3248
10.4720,1024
10.4740,6753
10.4760,816
10.4780,1216
10.4800,912
10.4820,1856
10.4840,3408
10.4860,1568
10.4880,1216
10.4900,1072
10.4920,1440
10.4940,768
10.4960,3920
10.4980,3216
10.5000,2944
10.5020,7137
10.5040,5601
10.5060,2272
10.5080,2064
10.5100,2960
10.5120,1424
10.5140,1696
10.5160,3088
10.5180,1184
10.5200,8033
10.5220,9778
10.5240,2672
10.5260,1760
10.5280,2720
10.5300,1520
10.5320,1408
10.5340,2080
10.5360,4449
10.5380,9442
10.5400,4097
10.5420,3040
10.5440,1584
10.5460,5297
10.5480,4161
10.5500,2304
10.5520,6977
10.5540,2352
10.5560,3200
10.5580,2192
10.5600,1680
10.5620,2896
10.5640,2192
10.5660,9106
10.5680,2368
10.5700,1328
10.5720,3360
10.5740,3248
10.5760,2752
10.5780,2896
10.5800,4753
10.5820,4161
10.5840,2400
10.5860,12178
10.5880,4113
10.5900,1536
10.5920,1184
10.5940,1088
10.5960,2080
10.5980,896
10.6000,800
10.6020,736
10.6040,4689
10.6060,3936
10.6080,8834
10.6100,2544
10.6120,1328
10.6140,976
10.6160,1696
10.6180,1248
10.6200,1392
10.6220,3152
10.6240,1568
10.6260,2080
10.6280,2272
10.6300,1552
10.6320,3520
10.6340,2320
10.6360,3840
10.6380,3936
10.6400,7265
10.6420,896
10.6440,2976
10.6460,1712
10.6480,4641
10.6500,1488
10.6520,2688
10.6540,14099
10.6560,848
10.6580,1792
10.6600,832
10.6620,1088
10.6640,1296
10.6660,3648
10.6680,1632
10.6700,768
10.6720,2256
10.6740,1040
10.6760,1712
10.6780,1568
10.6800,6433
10.6820,2688
10.6840,5953
10.6860,3584
10.6880,5025
10.6900,1600
10.6920,1360
10.6940,1408
10.6960,1680
10.6980,768
10.7000,976
10.7020,7697
10.7040,2720
10.7060,944
10.7080,1344
10.7100,3296
10.7120,2896
10.7140,2480
10.7160,4641
10.7180,1344
10.7200,8049
10.7220,1104
10.7240,1280
10.7260,1344
10.7280,5041
10.7300,2368
10.7320,896
10.7340,1024
10.7360,3616
10.7380,4209
10.7400,6273
10.7420,1728
10.7440,1568
10.7460,976
10.7480,2016
10.7500,1248
10.7520,1552
10.7540,1296
10.7560,2240
10.7580,1056
10.7600,928
10.7620,1104
10.7640,1888
10.7660,6369
10.7680,1040
10.7700,1360
10.7720,8418
10.7740,1888
10.7760,1680
10.7780,6561
10.7800,1744
10.7820,1456
10.7840,2848
10.7860,896
10.7880,1664
10.7900,1760
10.7920,3024
10.7940,1120
10.7960,784
10.7980,3632
10.8000,1072
10.8020,1472
10.8040,976
10.8060,1696
10.8080,1248
10.8100,1104
10.8120,1312
10.8140,1088
10.8160,800
10.8180,1024
10.8200,1408
10.8220,960
10.8240,1632
10.8260,1312
10.8280,1504
10.8300,1504
10.8320,1344
10.8340,1088
10.8360,1200
10.8380,1184
10.8400,1072
10.8420,1072
10.8440,1120
10.8460,816
10.8480,832
10.8500,720
10.8520,1248
10.8540,1024
10.8560,1248
10.8580,1040
10.8600,1184
10.8620,1296
10.8640,1424
10.8660,1088
10.8680,1312
10.8700,720
10.8720,1456
10.8740,1184
10.8760,960
10.8780,816
10.8800,1088
10.8820,784
10.8840,1040
10.8860,912
10.8880,1280
10.8900,976
10.8920,1184
10.8940,1408
10.8960,1104
10.8980,1376
10.9000,1200
10.9020,1152
10.9040,1808
10.9060,4193
10.9080,1424
10.9100,928
10.9120,1600
10.9140,1280
10.9160,1440
10.9180,1168
10.9200,2720
10.9220,1344
10.9240,1552
10.9260,1968
10.9280,7745
10.9300,1808
10.9320,1200
10.9340,1600
10.9360,2720
10.9380,2400
10.9400,2368
10.9420,3280
10.9440,8177
10.9460,6065
10.9480,2608
10.9500,18100
10.9520,8754
10.9540,1712
10.9560,912
10.9580,1616
10.9600,1296
10.9620,960
10.9640,1872
10.9660,1600
10.9680,1184
10.9700,2496
10.9720,1296
10.9740,1248
10.9760,656
10.9780,1648
10.9800,1920
10.9820,992
10.9840,1120
10.9860,832
10.9880,832
10.9900,1296
10.9920,3792
10.9940,1088
10.9960,1920
10.9980,1024
11.0000,832
11.0020,784
11.0040,1296
11.0060,3472
11.0080,1712
11.0100,2528
11.0120,1184
11.0140,1472
11.0160,736
11.0180,704
11.0200,2080
11.0220,2912
11.0240,1040
11.0260,1360
11.0280,1856
11.0300,1456
11.0320,3216
11.0340,1152
11.0360,992
11.0380,1392
11.0400,1296
11.0420,864
11.0440,928
11.0460,3776
11.0480,1120
11.0500,1680
11.0520,1088
11.0540,816
11.0560,992
11.0580,1376
11.0600,1088
11.0620,2432
11.0640,864
11.0660,2896
11.0680,2528
11.0700,816
11.0720,896
11.0740,2128
11.0760,1312
11.0780,1216
11.0800,1424
11.0820,1280
11.0840,1168
11.0860,864
11.0880,3232
11.0900,1248
11.0920,944
11.0940,1168
11.0960,1280
11.0980,4497
11.1000,2336
11.1020,2880
11.1040,704
11.1060,1824
11.1080,832
11.1100,2656
11.1120,1152
11.1140,3280
11.1160,1296
11.1180,1488
11.1200,992
11.1220,4097
11.1240,2000
11.1260,864
11.1280,1184
11.1300,1120
11.1320,1680
11.1340,2224
11.1360,944
11.1380,1200
11.1400,1040
11.1420,1040
11.1440,1680
11.1460,2704
11.1480,1584
11.1500,816
11.1520,1088
11.1540,1312
11.1560,1376
11.1580,3120
11.1600,2384
11.1620,928
11.1640,5201
11.1660,1328
11.1680,2128
11.1700,1456
11.1720,1120
11.1740,896
11.1760,2256
11.1780,1008
11.1800,1120
11.1820,2784
11.1840,960
11.1860,3152
11.1880,896
11.1900,1088
11.1920,7713
11.1940,1904
11.1960,864
11.1980,1568
11.2000,1104
11.2020,1024
11.2040,1344
11.2060,896
11.2080,1712
11.2100,1296
11.2120,2064
11.2140,1520
11.2160,1840
11.2180,1424
11.2200,1216
11.2220,832
11.2240,960
11.2260,1504
11.2280,864
11.2300,1104
11.2320,1216
11.2340,1024
11.2360,1056
11.2380,2368
11.2400,1184
11.2420,800
11.2440,1296
11.2460,1312
11.2480,800
11.2500,2432
11.2520,2944
11.2540,1088
11.2560,1824
11.2580,1376
11.2600,2096
11.2620,1696
11.2640,1168
11.2660,1296
11.2680,832
11.2700,3360
11.2720,2608
11.2740,832
11.2760,1088
11.2780,3616
11.2800,864
11.2820,1824
11.2840,928
11.2860,4513
11.2880,1536
11.2900,1328
11.2920,9618
11.2940,800
11.2960,1552
11.2980,1872
11.3000,2336
11.3020,3504
11.3040,1024
11.3060,1296
11.3080,7329
11.3100,992
11.3120,1072
11.3140,1360
11.3160,5201
11.3180,2256
11.3200,1312
11.3220,1296
11.3240,1456
11.3260,4545
11.3280,2512
11.3300,1280
11.3320,2608
11.3340,928
11.3360,1968
11.3380,2000
11.3400,1248
11.3420,944
11.3440,1024
11.3460,1216
11.3480,1472
11.3500,1168
11.3520,1056
11.3540,2784
11.3560,1488
11.3580,1072
11.3600,2144
11.3620,992
11.3640,1728
11.3660,1168
11.3680,896
11.3700,1088
11.3720,1680
11.3740,1408
11.3760,2656
11.3780,1168
11.3800,976
11.3820,992
11.3840,1280
11.3860,944
11.3880,1248
11.3900,2080
11.3920,2320
11.3940,1744
11.3960,1232
11.3980,1456
11.4000,1568
11.4020,1408
11.4040,1952
11.4060,2368
11.4080,1168
11.4100,2576
11.4120,2384
11.4140,1120
11.4160,2464
11.4180,1344
11.4200,4225
11.4220,1376
11.4240,1280
11.4260,1168
11.4280,960
11.4300,1024
11.4320,6961
11.4340,1408
11.4360,1664
11.4380,2080
11.4400,1600
11.4420,656
11.4440,2160
11.4460,2368
11.4480,15619
11.4500,10178
11.4520,1872
11.4540,2192
11.4560,1296
11.4580,1424
11.4600,1072
11.4620,2400
11.4640,800
11.4660,928
11.4680,1760
11.4700,1760
11.4720,1040
11.4740,880
11.4760,688
11.4780,976
11.4800,3104
11.4820,1360
11.4840,1168
11.4860,976
11.4880,4577
11.4900,4145
11.4920,1248
11.4940,1024
11.4960,1232
11.4980,1088
11.5000,1088
11.5020,1104
11.5040,1376
11.5060,1120
11.5080,1888
11.5100,1136
11.5120,832
11.5140,864
11.5160,2096
11.5180,784
11.5200,3232
11.5220,1120
11.5240,1200
11.5260,656
11.5280,1104
11.5300,992
11.5320,784
11.5340,1952
11.5360,1040
11.5380,1472
11.5400,992
11.5420,1120
11.5440,912
11.5460,1360
11.5480,2000
11.5500,1360
11.5520,976
11.5540,1200
11.5560,1344
11.5580,1040
11.5600,1440
11.5620,2768
11.5640,912
11.5660,2272
11.5680,992
11.5700,848
11.5720,1440
11.5740,1056
11.5760,1184
11.5780,1264
11.5800,2000
11.5820,1120
11.5840,1536
11.5860,1696
11.5880,1328
11.5900,768
11.5920,832
11.5940,800
11.5960,1280
11.5980,1728
11.6000,1136
11.6020,1568
11.6040,1632
11.6060,1200
11.6080,1616
11.6100,1040
11.6120,1072
11.6140,576
11.6160,1184
11.6180,1040
11.6200,1120
11.6220,1024
11.6240,928
11.6260,4689
11.6280,2512
11.6300,1296
11.6320,1568
11.6340,1344
11.6360,1376
11.6380,816
11.6400,1744
11.6420,1168
11.6440,1008
11.6460,1344
11.6480,1936
11.6500,1376
11.6520,768
11.6540,2096
11.6560,1168
11.6580,2464
11.6600,1824
11.6620,1104
11.6640,848
11.6660,848
11.6680,1376
11.6700,1952
11.6720,1216
11.6740,1216
11.6760,912
11.6780,1184
11.6800,1888
11.6820,3808
11.6840,3520
11.6860,1200
11.6880,1088
11.6900,896
11.6920,1504
11.6940,720
11.6960,1248
11.6980,736
11.7000,1936
11.7020,1120
11.7040,944
11.7060,2016
11.7080,1120
11.7100,1152
11.7120,1088
11.7140,1472
11.7160,1152
11.7180,784
11.7200,864
11.7220,2112
11.7240,1088
11.7260,4161
11.7280,2960
11.7300,3408
11.7320,768
11.7340,928
11.7360,7953
11.7380,6353
11.7400,1664
11.7420,752
11.7440,1328
11.7460,1424
11.7480,1760
11.7500,1024
11.7520,944
11.7540,2048
11.7560,976
11.7580,992
11.7600,944
11.7620,1216
11.7640,1216
11.7660,1376
11.7680,928
11.7700,1536
11.7720,1552
11.7740,2576
11.7760,1648
11.7780,4369
11.7800,12435
11.7820,832
11.7840,832
11.7860,1744
11.7880,1104
11.7900,1168
11.7920,1184
11.7940,2448
11.7960,1584
11.7980,912
11.8000,1584
11.8020,1312
11.8040,1056
11.8060,1280
11.8080,3472
11.8100,944
11.8120,1088
11.8140,704
11.8160,2720
11.8180,5761
11.8200,1792
11.8220,1152
11.8240,1248
11.8260,688
11.8280,784
11.8300,1632
11.8320,1040
11.8340,1344
11.8360,992
11.8380,1248
11.8400,944
11.8420,1248
11.8440,944
11.8460,912
11.8480,944
11.8500,8129
11.8520,3040
11.8540,992
11.8560,896
11.8580,2192
11.8600,2560
11.8620,992
11.8640,2016
11.8660,912
11.8680,1408
11.8700,2176
11.8720,1488
11.8740,896
11.8760,960
11.8780,1120
11.8800,1104
11.8820,816
11.8840,736
11.8860,1152
11.8880,800
11.8900,1472
11.8920,1760
11.8940,1040
11.8960,2256
11.8980,640
11.9000,720
11.9020,6913
11.9040,2704
11.9060,1488
11.9080,1040
11.9100,1264
11.9120,1056
11.9140,1408
11.9160,1664
11.9180,1280
11.9200,880
11.9220,3344
11.9240,1808
11.9260,1616
11.9280,2624
11.9300,1168
11.9320,1248
11.9340,912
11.9360,1056
11.9380,4449
11.9400,2352
11.9420,1104
11.9440,944
11.9460,912
11.9480,1152
11.9500,1232
11.9520,2000
11.9540,1792
11.9560,896
11.9580,1024
11.9600,640
11.9620,1696
11.9640,928
11.9660,1792
11.9680,1104
11.9700,1120
11.9720,1168
11.9740,1824
11.9760,1376
11.9780,8738
11.9800,8498
11.9820,1264
11.9840,976
11.9860,1680
11.9880,688
11.9900,1152
11.9920,1328
11.9940,1744
11.9960,1712
11.9980,1360
12.0000,1664
12.0020,6497
12.0040,992
12.0060,1792
12.0080,720
12.0100,832
12.0120,576
12.0140,5681
12.0160,1088
12.0180,1600
12.0200,5297
12.0220,2352
12.0240,896
12.0260,20100
12.0280,11778
12.0300,864
12.0320,816
12.0340,880
12.0360,1040
12.0380,1632
12.0400,832
12.0420,2000
12.0440,1488
12.0460,6273
12.0480,1920
12.0500,3584
12.0520,912
12.0540,1104
12.0560,1456
12.0580,1600
12.0600,1568
12.0620,944
12.0640,1088
12.0660,1296
12.0680,1248
12.0700,992
12.0720,1216
12.0740,1104
12.0760,1296
12.0780,784
12.0800,1504
12.0820,1600
12.0840,944
12.0860,1056
12.0880,1072
12.0900,1072
12.0920,720
12.0940,1616
12.0960,896
12.0980,1088
12.1000,1584
12.1020,1184
12.1040,2448
12.1060,912
12.1080,976
12.1100,5777
12.1120,1936
12.1140,848
12.1160,1440
12.1180,1104
12.1200,960
12.1220,1104
12.1240,1376
12.1260,1424
12.1280,2224
12.1300,14627
12.1320,5137
12.1340,1296
12.1360,4097
12.1380,1664
12.1400,1248
12.1420,1232
12.1440,1168
12.1460,1168
12.1480,1120
12.1500,1152
12.1520,2816
12.1540,6001
12.1560,1168
12.1580,1152
12.1600,1104
12.1620,2880
12.1640,2480
12.1660,1136
12.1680,976
12.1700,1072
12.1720,1168
12.1740,912
12.1760,1664
12.1780,1024
12.1800,1168
12.1820,1152
12.1840,1152
12.1860,5697
12.1880,848
12.1900,1376
12.1920,1200
12.1940,912
12.1960,1088
12.1980,1312
12.2000,1152
12.2020,768
12.2040,1824
12.2060,3136
12.2080,2336
12.2100,1184
12.2120,1424
12.2140,1728
12.2160,1056
12.2180,1216
12.2200,864
12.2220,864
12.2240,816
12.2260,864
12.2280,912
12.2300,928
12.2320,720
12.2340,1072
12.2360,3232
12.2380,1056
12.2400,2192
12.2420,2752
12.2440,3968
12.2460,1696
12.2480,4305
12.2500,1696
12.2520,1584
12.2540,1936
12.2560,1568
12.2580,1408
12.2600,992
12.2620,1296
12.2640,7937
12.2660,4561
12.2680,1424
12.2700,1120
12.2720,1216
12.2740,1392
12.2760,1600
12.2780,1456
12.2800,1904
12.2820,1296
12.2840,1296
12.2860,4545
12.2880,5777
12.2900,2112
12.2920,1120
12.2940,992
12.2960,1024
12.2980,768
12.3000,896
12.3020,1072
12.3040,1616
12.3060,1280
12.3080,1376
12.3100,1072
12.3120,1056
12.3140,816
12.3160,960
12.3180,1056
12.3200,1632
12.3220,1168
12.3240,1088
12.3260,1872
12.3280,912
12.3300,1120
12.3320,5681
12.3340,2400
12.3360,976
12.3380,4369
12.3400,1152
12.3420,9522
12.3440,2960
12.3460,1248
12.3480,1760
12.3500,1296
12.3520,1120
12.3540,1040
12.3560,2192
12.3580,912
12.3600,736
12.3620,1312
12.3640,768
12.3660,928
12.3680,1136
12.3700,2624
12.3720,992
12.3740,1280
12.3760,784
12.3780,5713
12.3800,4193
12.3820,1104
12.3840,1600
12.3860,720
12.3880,960
12.3900,944
12.3920,1360
12.3940,1040
12.3960,1168
12.3980,1536
12.4000,1104
12.4020,816
12.4040,1248
12.4060,1264
12.4080,608
12.4100,1264
12.4120,1344
12.4140,5665
12.4160,12675
12.4180,1568
12.4200,1408
12.4220,864
12.4240,816
12.4260,848
12.4280,1424
12.4300,1296
12.4320,2720
12.4340,1312
12.4360,1200
12.4380,1232
12.4400,1040
12.4420,1120
12.4440,1728
12.4460,5857
12.4480,1744
12.4500,1360
12.4520,2400
12.4540,11954
12.4560,4881
12.4580,768
12.4600,1168
12.4620,1664
12.4640,960
12.4660,848
12.4680,1120
12.4700,1376
12.4720,1376
12.4740,1584
12.4760,944
12.4780,1184
12.4800,2128
12.4820,1888
12.4840,480
12.4860,1088
12.4880,1184
12.4900,976
12.4920,736
12.4940,864
12.4960,1472
12.4980,1504
12.5000,1456
12.5020,976
12.5040,960
12.5060,2192
12.5080,1248
12.5100,912
12.5120,1168
12.5140,1248
12.5160,912
12.5180,1280
12.5200,1328
12.5220,2256
12.5240,2224
12.5260,1136
12.5280,1872
12.5300,1152
12.5320,848
12.5340,1344
12.5360,1040
12.5380,4993
12.5400,1136
12.5420,1296
12.5440,1296
12.5460,1088
12.5480,672
12.5500,1152
12.5520,1312
12.5540,5249
12.5560,3616
12.5580,816
12.5600,1056
12.5620,12579
12.5640,3584
12.5660,1408
12.5680,1744
12.5700,1440
12.5720,688
12.5740,944
12.5760,1152
12.5780,1200
12.5800,1104
12.5820,848
12.5840,1152
12.5860,1040
12.5880,1504
12.5900,1968
12.5920,3680
12.5940,1200
12.5960,976
12.5980,944
12.6000,1216
12.6020,784
12.6040,1184
12.6060,1584
12.6080,912
12.6100,1216
12.6120,1072
12.6140,2240
12.6160,4529
12.6180,1808
12.6200,800
12.6220,1168
12.6240,1952
12.6260,6737
12.6280,6241
12.6300,960
12.6320,816
12.6340,1152
12.6360,1584
12.6380,784
12.6400,864
12.6420,2192
12.6440,688
12.6460,768
12.6480,1280
12.6500,1200
12.6520,1616
12.6540,1456
12.6560,1440
12.6580,1664
12.6600,992
12.6620,1488
12.6640,4641
12.6660,6081
12.6680,1504
12.6700,1280
12.6720,1184
12.6740,960
12.6760,1008
12.6780,736
12.6800,2352
12.6820,1152
12.6840,1120
12.6860,3024
12.6880,1296
12.6900,1024
12.6920,1168
12.6940,992
12.6960,896
12.6980,1056
12.7000,1008
12.7020,1968
12.7040,4064
12.7060,8914
12.7080,1040
12.7100,688
12.7120,4241
12.7140,2720
12.7160,1248
12.7180,768
12.7200,1968
12.7220,1744
12.7240,2304
12.7260,1024
12.7280,1184
12.7300,848
12.7320,1504
12.7340,1008
12.7360,1024
12.7380,1728
12.7400,1536
12.7420,640
12.7440,1360
12.7460,768
12.7480,1872
12.7500,1200
12.7520,2368
12.7540,1984
12.7560,976
12.7580,2640
12.7600,944
12.7620,3664
12.7640,976
12.7660,5041
12.7680,1936
12.7700,1552
12.7720,1744
12.7740,1088
12.7760,784
12.7780,848
12.7800,864
12.7820,784
12.7840,1408
12.7860,1040
12.7880,1152
12.7900,896
12.7920,720
12.7940,864
12.7960,960
12.7980,1360
12.8000,1120
12.8020,800
12.8040,1040
12.8060,944
12.8080,6577
12.8100,4721
12.8120,992
12.8140,736
12.8160,4161
12.8180,1072
12.8200,976
12.8220,1376
12.8240,2704
12.8260,1280
12.8280,784
12.8300,2272
12.8320,928
12.8340,11474
12.8360,6289
12.8380,1552
12.8400,1568
12.8420,1184
12.8440,1600
12.8460,736
12.8480,1680
12.8500,6833
12.8520,1152
12.8540,5777
12.8560,3360
12.8580,2304
12.8600,1488
12.8620,2128
12.8640,1504
12.8660,1072
12.8680,1120
12.8700,1200
12.8720,720
12.8740,960
12.8760,928
12.8780,1408
12.8800,1632
12.8820,1200
12.8840,1088
12.8860,1184
12.8880,1360
12.8900,928
12.8920,1136
12.8940,736
12.8960,1600
12.8980,800
12.9000,1584
12.9020,1696
12.9040,928
12.9060,3984
12.9080,3392
12.9100,1152
12.9120,848
12.9140,784
12.9160,1120
12.9180,3376
12.9200,1072
12.9220,864
12.9240,1152
12.9260,1296
12.9280,736
12.9300,960
12.9320,752
12.9340,1200
12.9360,816
12.9380,1456
12.9400,2064
12.9420,1616
12.9440,1760
12.9460,992
12.9480,1280
12.9500,1584
12.9520,1296
12.9540,2560
12.9560,2048
12.9580,8113
12.9600,1488
12.9620,768
12.9640,1632
12.9660,736
12.9680,1168
12.9700,1152
12.9720,2352
12.9740,1088
12.9760,816
12.9780,1936
12.9800,1360
12.9820,1664
12.9840,1312
12.9860,1008
12.9880,1136
12.9900,1024
12.9920,1024
12.9940,1168
12.9960,13587
12.9980,19220
13.0000,1376
13.0020,1024
13.0040,2112
13.0060,1408
13.0080,1248
13.0100,1312
13.0120,1344
13.0140,1248
13.0160,1056
13.0180,896
13.0200,736
13.0220,1712
13.0240,1088
13.0260,3696
13.0280,1568
13.0300,2384
13.0320,1216
13.0340,928
13.0360,1360
13.0380,736
13.0400,800
13.0420,1792
13.0440,1344
13.0460,1296
13.0480,2144
13.0500,1296
13.0520,1568
13.0540,1072
13.0560,928
13.0580,2128
13.0600,1616
13.0620,1008
13.0640,784
13.0660,2304
13.0680,2272
13.0700,800
13.0720,1408
13.0740,1120
13.0760,816
13.0780,832
13.0800,1024
13.0820,1216
13.0840,816
13.0860,1632
13.0880,1200
13.0900,976
13.0920,816
13.0940,976
13.0960,2240
13.0980,912
13.1000,15011
13.1020,2144
13.1040,3088
13.1060,1184
13.1080,784
13.1100,1072
13.1120,1344
13.1140,1632
13.1160,1232
13.1180,1872
13.1200,800
13.1220,1056
13.1240,1024
13.1260,2224
13.1280,640
13.1300,960
13.1320,4641
13.1340,2384
13.1360,1456
13.1380,1808
13.1400,1600
13.1420,2896
13.1440,1024
13.1460,1360
13.1480,1072
13.1500,1168
13.1520,1056
13.1540,1344
13.1560,1312
13.1580,1872
13.1600,688
13.1620,1312
13.1640,800
13.1660,2016
13.1680,960
13.1700,800
13.1720,1024
13.1740,1088
13.1760,1216
13.1780,1712
13.1800,1600
13.1820,944
13.1840,1184
13.1860,1248
13.1880,976
13.1900,944
13.1920,976
13.1940,1360
13.1960,1712
13.1980,1408
13.2000,1328
13.2020,1264
13.2040,1376
13.2060,1504
13.2080,816
13.2100,2544
13.2120,1040
13.2140,960
13.2160,1968
13.2180,7521
13.2200,9298
13.2220,3232
13.2240,1952
13.2260,960
13.2280,1392
13.2300,704
13.2320,1552
13.2340,1024
13.2360,4609
13.2380,1280
13.2400,1504
13.2420,1600
13.2440,960
13.2460,1088
13.2480,672
13.2500,1584
13.2520,1440
13.2540,1680
13.2560,1248
13.2580,1344
13.2600,1968
13.2620,784
13.2640,832
13.2660,1168
13.2680,1488
13.2700,1616
13.2720,3728
13.2740,816
13.2760,1408
13.2780,928
13.2800,2752
13.2820,2320
13.2840,1216
13.2860,1088
13.2880,1584
13.2900,1120
13.2920,1184
13.2940,896
13.2960,1472
13.2980,976
13.3000,1616
13.3020,576
13.3040,912
13.3060,1104
13.3080,1168
13.3100,2256
13.3120,688
13.3140,1616
13.3160,1760
13.3180,1504
13.3200,1520
13.3220,1632
13.3240,1168
13.3260,1040
13.3280,1328
13.3300,7905
13.3320,5329
13.3340,1568
13.3360,1104
13.3380,1296
13.3400,1040
13.3420,6369
13.3440,10722
13.3460,1072
13.3480,1920
13.3500,1280
13.3520,816
13.3540,1152
13.3560,1072
13.3580,1088
13.3600,2320
13.3620,2688
13.3640,1664
13.3660,1312
13.3680,2160
13.3700,720
13.3720,3376
13.3740,3680
13.3760,688
13.3780,848
13.3800,1328
13.3820,1024
13.3840,1360
13.3860,944
13.3880,656
13.3900,5121
13.3920,4016
13.3940,848
13.3960,2080
13.3980,736
13.4000,1808
13.4020,2176
13.4040,1040
13.4060,1600
13.4080,720
13.4100,992
13.4120,816
13.4140,752
13.4160,1056
13.4180,1472
13.4200,5249
13.4220,1456
13.4240,896
13.4260,1968
13.4280,1440
13.4300,1184
13.4320,1136
13.4340,832
13.4360,704
13.4380,1680
13.4400,3296
13.4420,10962
13.4440,2320
13.4460,1440
13.4480,1184
13.4500,1232
13.4520,992
13.4540,720
13.4560,1200
13.4580,832
13.4600,1184
13.4620,2384
13.4640,1296
13.4660,976
13.4680,960
13.4700,1712
13.4720,848
13.4740,1376
13.4760,960
13.4780,3552
13.4800,784
13.4820,848
13.4840,1648
13.4860,1168
13.4880,848
13.4900,720
13.4920,912
13.4940,1792
13.4960,1040
13.4980,688
13.5000,480
13.5020,1936
13.5040,944
13.5060,2144
13.5080,2944
13.5100,3200
13.5120,2640
13.5140,1360
13.5160,5841
13.5180,3136
13.5200,1328
13.5220,1312
13.5240,1088
13.5260,2304
13.5280,1776
13.5300,816
13.5320,1072
13.5340,1728
13.5360,3776
13.5380,1360
13.5400,3696
13.5420,1440
13.5440,2176
13.5460,5825
13.5480,12883
13.5500,1280
13.5520,1760
13.5540,1712
13.5560,1312
13.5580,2944
13.5600,1680
13.5620,1600
13.5640,1280
13.5660,784
13.5680,1184
13.5700,1264
13.5720,1088
13.5740,960
13.5760,848
13.5780,1616
13.5800,848
13.5820,2992
13.5840,736
13.5860,1984
13.5880,3600
13.5900,1504
13.5920,2656
13.5940,1440
13.5960,3504
13.5980,2352
13.6000,912
13.6020,720
13.6040,3616
13.6060,1024
13.6080,1088
13.6100,1232
13.6120,1168
13.6140,1280
13.6160,576
13.6180,928
13.6200,1216
13.6220,2864
13.6240,7265
13.6260,816
13.6280,1040
13.6300,848
13.6320,976
13.6340,2496
13.6360,1504
13.6380,928
13.6400,2384
13.6420,8017
13.6440,1088
13.6460,1040
13.6480,800
13.6500,1216
13.6520,784
13.6540,688
13.6560,1632
13.6580,1936
13.6600,2400
13.6620,768
13.6640,1072
13.6660,1104
13.6680,1328
13.6700,784
13.6720,816
13.6740,848
13.6760,1296
13.6780,992
13.6800,928
13.6820,1408
13.6840,912
13.6860,2720
13.6880,1344
13.6900,1984
13.6920,2784
13.6940,976
13.6960,896
13.6980,1824
13.7000,2752
13.7020,1152
13.7040,3600
13.7060,1632
13.7080,800
13.7100,1024
13.7120,2208
13.7140,1808
13.7160,4321
13.7180,2272
13.7200,1440
13.7220,1360
13.7240,1152
13.7260,832
13.7280,1312
13.7300,864
13.7320,1216
13.7340,1568
13.7360,1120
13.7380,976
13.7400,1760
13.7420,1104
13.7440,976
13.7460,1024
13.7480,1168
13.7500,2512
13.7520,1328
13.7540,6289
13.7560,2848
13.7580,3888
13.7600,5185
13.7620,1744
13.7640,880
13.7660,1104
13.7680,1696
13.7700,1104
13.7720,800
13.7740,944
13.7760,1168
13.7780,992
13.7800,1088
13.7820,944
13.7840,2960
13.7860,1568
13.7880,1184
13.7900,1504
13.7920,1248
13.7940,3264
13.7960,1184
13.7980,1232
13.8000,1376
13.8020,992
13.8040,1072
13.8060,1072
13.8080,720
13.8100,1920
13.8120,1488
13.8140,1264
13.8160,1856
13.8180,1872
13.8200,1296
13.8220,1888
13.8240,2320
13.8260,1728
13.8280,1056
13.8300,736
13.8320,1440
13.8340,848
13.8360,1712
13.8380,1376
13.8400,1152
13.8420,896
13.8440,1184
13.8460,1040
13.8480,1136
13.8500,640
13.8520,944
13.8540,2208
13.8560,8594
13.8580,13187
13.8600,1808
13.8620,1280
13.8640,1200
13.8660,1376
13.8680,960
13.8700,1056
13.8720,1072
13.8740,1488
13.8760,1280
13.8780,1568
13.8800,880
13.8820,1664
13.8840,4897
13.8860,8097
13.8880,2624
13.8900,2992
13.8920,1152
13.8940,4625
13.8960,1792
13.8980,3040
13.9000,1744
13.9020,1120
13.9040,800
13.9060,944
13.9080,1424
13.9100,1552
13.9120,1104
13.9140,944
13.9160,912
13.9180,1104
13.9200,2080
13.9220,784
13.9240,3808
13.9260,736
13.9280,928
13.9300,1184
13.9320,1088
13.9340,784
13.9360,1680
13.9380,1168
13.9400,2128
13.9420,1952
13.9440,1408
13.9460,1104
13.9480,1936
13.9500,1440
13.9520,10818
13.9540,3280
13.9560,608
13.9580,1696
13.9600,944
13.9620,816
13.9640,1168
13.9660,1200
13.9680,1200
13.9700,944
13.9720,752
13.9740,784
13.9760,6705
13.9780,6209
13.9800,4897
13.9820,1456
13.9840,2512
13.9860,5137
13.9880,5057
13.9900,928
13.9920,3072
13.9940,2256
13.9960,1120
13.9980,1104
14.0000,816
14.0020,1152
14.0040,1344
14.0060,944
14.0080,896
14.0100,1312
14.0120,1088
14.0140,1504
14.0160,1360
14.0180,3296
14.0200,1536
14.0220,992
14.0240,1024
14.0260,2608
14.0280,1536
14.0300,1456
14.0320,2448
14.0340,4961
14.0360,832
14.0380,1408
14.0400,1200
14.0420,944
14.0440,1408
14.0460,3104
14.0480,1776
14.0500,1504
14.0520,992
14.0540,848
14.0560,1280
14.0580,2016
14.0600,7697
14.0620,8258
14.0640,2464
14.0660,1344
14.0680,1568
14.0700,1360
14.0720,6017
14.0740,2208
14.0760,1280
14.0780,800
14.0800,1072
14.0820,1120
14.0840,1360
14.0860,1680
14.0880,1104
14.0900,976
14.0920,1200
14.0940,1296
14.0960,1040
14.0980,1120
14.1000,848
14.1020,1552
14.1040,1600
14.1060,960
14.1080,1104
14.1100,1872
14.1120,720
14.1140,4705
14.1160,2816
14.1180,1248
14.1200,1152
14.1220,832
14.1240,944
14.1260,864
14.1280,1392
14.1300,2240
14.1320,1712
14.1340,1936
14.1360,8177
14.1380,7137
14.1400,3968
14.1420,4064
14.1440,2496
14.1460,4273
14.1480,1600
14.1500,1392
14.1520,2976
14.1540,1680
14.1560,864
14.1580,576
14.1600,2384
14.1620,1952
14.1640,1664
14.1660,928
14.1680,672
14.1700,720
14.1720,976
14.1740,1120
14.1760,864
14.1780,1072
14.1800,1088
14.1820,976
14.1840,1152
14.1860,1856
14.1880,1344
14.1900,800
14.1920,1888
14.1940,1616
14.1960,1856
14.1980,1152
14.2000,800
14.2020,1744
14.2040,1808
14.2060,1088
14.2080,1456
14.2100,1456
14.2120,848
14.2140,1552
14.2160,1776
14.2180,1600
14.2200,1456
14.2220,2400
14.2240,704
14.2260,1504
14.2280,4257
14.2300,1216
14.2320,992
14.2340,3584
14.2360,7505
14.2380,1424
14.2400,752
14.2420,1520
14.2440,1552
14.2460,832
14.2480,3856
14.2500,2944
14.2520,944
14.2540,1968
14.2560,1216
14.2580,1104
14.2600,1024
14.2620,1344
14.2640,4417
14.2660,1072
14.2680,1440
14.2700,2208
14.2720,2400
14.2740,800
14.2760,1312
14.2780,3632
14.2800,5249
14.2820,848
14.2840,1344
14.2860,928
14.2880,1600
14.2900,1104
14.2920,1088
14.2940,800
14.2960,1248
14.2980,768
14.3000,992
14.3020,1056
14.3040,1072
14.3060,944
14.3080,960
14.3100,1024
14.3120,1536
14.3140,1328
14.3160,704
14.3180,5841
14.3200,3088
14.3220,4657
14.3240,1440
14.3260,2256
14.3280,1728
14.3300,2928
14.3320,704
14.3340,1216
14.3360,864
14.3380,1104
14.3400,3904
14.3420,1744
14.3440,1280
14.3460,1280
14.3480,1104
14.3500,912
14.3520,736
14.3540,784
14.3560,1552
14.3580,576
14.3600,1536
14.3620,992
14.3640,1248
14.3660,1120
14.3680,1920
14.3700,496
14.3720,1600
14.3740,1344
14.3760,4145
14.3780,704
14.3800,784
14.3820,944
14.3840,784
14.3860,7361
14.3880,4881
14.3900,1424
14.3920,864
14.3940,960
14.3960,944
14.3980,1104
14.4000,1184
14.4020,5137
14.4040,4337
14.4060,688
14.4080,992
14.4100,1152
14.4120,1152
14.4140,896
14.4160,5281
14.4180,1536
14.4200,3072
14.4220,3008
14.4240,1104
14.4260,1104
14.4280,896
14.4300,5841
14.4320,2880
14.4340,720
14.4360,1312
14.4380,816
14.4400,1376
14.4420,3600
14.4440,4545
14.4460,1088
14.4480,1360
14.4500,896
14.4520,816
14.4540,1168
14.4560,1040
14.4580,1136
14.4600,912
14.4620,1168
14.4640,1152
14.4660,1600
14.4680,2240
14.4700,992
14.4720,1552
14.4740,1168
14.4760,1280
14.4780,1168
14.4800,800
14.4820,1088
14.4840,928
14.4860,1072
14.4880,864
14.4900,928
14.4920,976
14.4940,5169
14.4960,10834
14.4980,1136
14.5000,2464
14.5020,816
14.5040,2448
14.5060,4080
14.5080,2096
14.5100,1072
14.5120,848
14.5140,944
14.5160,1200
14.5180,976
14.5200,1328
14.5220,1168
14.5240,1472
14.5260,1536
14.5280,704
14.5300,1120
14.5320,1024
14.5340,1216
14.5360,944
14.5380,1056
14.5400,880
14.5420,1584
14.5440,2304
14.5460,1856
14.5480,2176
14.5500,1088
14.5520,5985
14.5540,1168
14.5560,1024
14.5580,1472
14.5600,1168
14.5620,1216
14.5640,1184
14.5660,1088
14.5680,2752
14.5700,1984
14.5720,1232
14.5740,944
14.5760,656
14.5780,816
14.5800,1248
14.5820,1504
14.5840,3472
14.5860,688
14.5880,1280
14.5900,848
14.5920,1040
14.5940,1168
14.5960,928
14.5980,1200
14.6000,1088
14.6020,816
14.6040,864
14.6060,3040
14.6080,1696
14.6100,944
14.6120,960
14.6140,1440
14.6160,10642
14.6180,12595
14.6200,3344
14.6220,3248
14.6240,544
14.6260,864
14.6280,1408
14.6300,992
14.6320,1200
14.6340,816
14.6360,1248
14.6380,1440
14.6400,1952
14.6420,1056
14.6440,768
14.6460,3072
14.6480,1040
14.6500,1856
14.6520,928
14.6540,1664
14.6560,1152
14.6580,960
14.6600,1408
14.6620,1120
14.6640,4129
14.6660,2112
14.6680,1312
14.6700,1200
14.6720,5089
14.6740,1344
14.6760,976
14.6780,848
14.6800,816
14.6820,912
14.6840,816
14.6860,3408
14.6880,4529
14.6900,1264
14.6920,1536
14.6940,2144
14.6960,1424
14.6980,1216
14.7000,1984
14.7020,1600
14.7040,4209
14.7060,1168
14.7080,992
14.7100,1232
14.7120,1296
14.7140,1024
14.7160,848
14.7180,864
14.7200,1088
14.7220,1184
14.7240,1152
14.7260,4385
14.7280,1440
14.7300,2512
14.7320,1920
14.7340,1312
14.7360,704
14.7380,2000
14.7400,1184
14.7420,1040
14.7440,2784
14.7460,912
14.7480,2224
14.7500,1360
14.7520,1104
14.7540,1600
14.7560,1936
14.7580,1488
14.7600,1280
14.7620,1040
14.7640,1440
14.7660,1120
14.7680,1488
14.7700,1072
14.7720,1040
14.7740,816
14.7760,752
14.7780,1216
14.7800,800
14.7820,864
14.7840,1216
14.7860,1712
14.7880,1056
14.7900,928
14.7920,864
14.7940,1168
14.7960,688
14.7980,1040
14.8000,1104
14.8020,992
14.8040,1024
14.8060,736
14.8080,1408
14.8100,1712
14.8120,1152
14.8140,1328
14.8160,720
14.8180,1104
14.8200,3088
14.8220,6705
14.8240,1424
14.8260,2528
14.8280,1488
14.8300,3680
14.8320,7217
14.8340,4145
14.8360,1312
14.8380,1024
14.8400,928
14.8420,960
14.8440,768
14.8460,816
14.8480,1184
14.8500,976
14.8520,1200
14.8540,960
14.8560,1120
14.8580,1552
14.8600,992
14.8620,1376
14.8640,1232
14.8660,11330
14.8680,7105
14.8700,1712
14.8720,1120
14.8740,1152
14.8760,1296
14.8780,912
14.8800,1184
14.8820,1232
14.8840,5889
14.8860,11074
14.8880,1744
14.8900,832
14.8920,1296
14.8940,912
14.8960,4241
14.8980,1456
14.9000,1328
14.9020,1328
14.9040,2160
14.9060,752
14.9080,1024
14.9100,1056
14.9120,1232
14.9140,1232
14.9160,1184
14.9180,960
14.9200,2304
14.9220,1360
14.9240,960
14.9260,1168
14.9280,2464
14.9300,1440
14.9320,1360
14.9340,1040
14.9360,720
14.9380,976
14.9400,896
14.9420,2016
14.9440,1424
14.9460,1152
14.9480,1248
14.9500,1360
14.9520,5121
14.9540,4097
14.9560,1472
14.9580,1376
14.9600,816
14.9620,1360
14.9640,1408
14.9660,816
14.9680,880
14.9700,1280
14.9720,976
14.9740,14211
14.9760,16932
14.9780,1440
14.9800,1664
14.9820,1632
14.9840,4113
14.9860,11234
14.9880,2944
14.9900,1088
14.9920,768
14.9940,1104
14.9960,816
14.9980,1216
15.0000,1232
15.0020,128
15.0040,1632
15.0060,1120
15.0080,1392
15.0100,1536
15.0120,960
15.0140,848
15.0160,1360
15.0180,720
15.0200,2304
15.0220,992
15.0240,1120
15.0260,976
15.0280,1296
15.0300,560
15.0320,784
15.0340,1632
15.0360,2064
15.0380,1104
15.0400,1392
15.0420,1152
15.0440,5985
15.0460,2208
15.0480,768
15.0500,1456
15.0520,1328
15.0540,4801
15.0560,800
15.0580,1520
15.0600,1760
15.0620,1328
15.0640,4289
15.0660,4753
15.0680,2512
15.0700,1120
15.0720,2640
15.0740,832
15.0760,1088
15.0780,2688
15.0800,1088
15.0820,1088
15.0840,1056
15.0860,800
15.0880,960
15.0900,992
15.0920,11362
15.0940,1680
15.0960,2096
15.0980,896
15.1000,1600
15.1020,912
15.1040,1600
15.1060,1136
15.1080,1472
15.1100,1952
15.1120,1056
15.1140,752
15.1160,1168
15.1180,960
15.1200,768
15.1220,960
15.1240,1280
15.1260,992
15.1280,800
15.1300,1072
15.1320,816
15.1340,1520
15.1360,3104
15.1380,1600
15.1400,800
15.1420,1376
15.1440,1584
15.1460,720
15.1480,1440
15.1500,6801
15.1520,2576
15.1540,6849
15.1560,2640
15.1580,1152
15.1600,784
15.1620,1232
15.1640,800
15.1660,864
15.1680,976
15.1700,1520
15.1720,1104
15.1740,1152
15.1760,816
15.1780,752
15.1800,2368
15.1820,3936
15.1840,1152
15.1860,1856
15.1880,992
15.1900,960
15.1920,1088
15.1940,1376
15.1960,1296
15.1980,816
15.2000,1088
15.2020,5345
15.2040,3104
15.2060,1488
15.2080,768
15.2100,992
15.2120,768
15.2140,9810
15.2160,1280
15.2180,768
15.2200,1296
15.2220,864
15.2240,1744
15.2260,2368
15.2280,784
15.2300,928
15.2320,960
15.2340,2000
15.2360,1376
15.2380,1120
15.2400,816
15.2420,1552
15.2440,1632
15.2460,720
15.2480,592
15.2500,2336
15.2520,736
15.2540,1952
15.2560,7233
15.2580,1072
15.2600,6721
15.2620,1360
15.2640,928
15.2660,736
15.2680,800
15.2700,576
15.2720,1568
15.2740,880
15.2760,1056
15.2780,1568
15.2800,768
15.2820,1360
15.2840,1344
15.2860,1104
15.2880,800
15.2900,2496
15.2920,784
15.2940,1168
15.2960,1056
15.2980,1168
15.3000,1152
15.3020,1200
15.3040,1408
15.3060,960
15.3080,1136
15.3100,1472
15.3120,1024
15.3140,1216
15.3160,1072
15.3180,1248
15.3200,1376
15.3220,960
15.3240,3168
15.3260,6545
15.3280,1136
15.3300,1808
15.3320,3584
15.3340,1968
15.3360,1232
15.3380,1568
15.3400,7009
15.3420,11890
15.3440,1184
15.3460,1008
15.3480,1056
15.3500,1088
15.3520,1040
15.3540,752
15.3560,928
15.3580,5457
15.3600,5905
15.3620,1248
15.3640,896
15.3660,1232
15.3680,2224
15.3700,3552
15.3720,1264
15.3740,912
15.3760,1072
15.3780,624
15.3800,976
15.3820,944
15.3840,992
15.3860,1696
15.3880,1312
15.3900,1344
15.3920,864
15.3940,1344
15.3960,1488
15.3980,1168
15.4000,960
15.4020,976
15.4040,784
15.4060,1072
15.4080,976
15.4100,2976
15.4120,1344
15.4140,1120
15.4160,1952
15.4180,3040
15.4200,3248
15.4220,3808
15.4240,3296
15.4260,1760
15.4280,1232
15.4300,1632
15.4320,8194
15.4340,8081
15.4360,912
15.4380,1920
15.4400,1136
15.4420,4945
15.4440,3200
15.4460,1056
15.4480,4177
15.4500,1072
15.4520,1344
15.4540,816
15.4560,1056
15.4580,1536
15.4600,1248
15.4620,1424
15.4640,976
15.4660,2720
15.4680,2608
15.4700,1552
15.4720,3360
15.4740,3776
15.4760,3136
15.4780,2496
15.4800,1296
15.4820,784
15.4840,944
15.4860,1104
15.4880,1088
15.4900,1008
15.4920,992
15.4940,1680
15.4960,1040
15.4980,1264
15.5000,1232
15.5020,992
15.5040,1744
15.5060,1360
15.5080,2704
15.5100,960
15.5120,1616
15.5140,784
15.5160,2176
15.5180,1504
15.5200,1536
15.5220,1296
15.5240,1888
15.5260,4273
15.5280,1152
15.5300,1744
15.5320,1872
15.5340,1456
15.5360,1312
15.5380,1152
15.5400,1008
15.5420,1040
15.5440,1072
15.5460,1104
15.5480,1968
15.5500,1216
15.5520,800
15.5540,1424
15.5560,1440
15.5580,2992
15.5600,8498
15.5620,1328
15.5640,896
15.5660,1328
15.5680,2112
15.5700,2896
15.5720,1056
15.5740,864
15.5760,5009
15.5780,1008
15.5800,768
15.5820,1520
15.5840,1248
15.5860,1104
15.5880,1504
15.5900,1248
15.5920,5185
15.5940,2752
15.5960,976
15.5980,1456
15.6000,1184
15.6020,2480
15.6040,800
15.6060,1536
15.6080,1280
15.6100,1488
15.6120,1104
15.6140,2016
15.6160,1536
15.6180,976
15.6200,1376
15.6220,2384
15.6240,1344
15.6260,928
15.6280,640
15.6300,800
15.6320,1072
15.6340,2960
15.6360,960
15.6380,928
15.6400,1440
15.6420,768
15.6440,1344
15.6460,800
15.6480,1072
15.6500,1504
15.6520,1040
15.6540,9522
15.6560,960
15.6580,768
15.6600,1184
15.6620,896
15.6640,864
15.6660,1184
15.6680,1296
15.6700,1728
15.6720,896
15.6740,1968
15.6760,1840
15.6780,1408
15.6800,1360
15.6820,944
15.6840,3856
15.6860,1312
15.6880,1696
15.6900,7729
15.6920,11218
15.6940,1216
15.6960,1728
15.6980,5889
15.7000,1184
15.7020,2896
15.7040,960
15.7060,1952
15.7080,1872
15.7100,1120
15.7120,6385
15.7140,1184
15.7160,1472
15.7180,960
15.7200,960
15.7220,1328
15.7240,1504
15.7260,1344
15.7280,3392
15.7300,1088
15.7320,4369
15.7340,3808
15.7360,1280
15.7380,2368
15.7400,3392
15.7420,1120
15.7440,2144
15.7460,1472
15.7480,1296
15.7500,2048
15.7520,1584
15.7540,2752
15.7560,1248
15.7580,1872
15.7600,1808
15.7620,6273
15.7640,2048
15.7660,2464
15.7680,3392
15.7700,1792
15.7720,8033
15.7740,2736
15.7760,1360
15.7780,1568
15.7800,1088
15.7820,6433
15.7840,1072
15.7860,1296
15.7880,3616
15.7900,1840
15.7920,2608
15.7940,672
15.7960,1024
15.7980,1408
15.8000,832
15.8020,1568
15.8040,3232
15.8060,4337
15.8080,1200
15.8100,2736
15.8120,1408
15.8140,2896
15.8160,1248
15.8180,992
15.8200,1648
15.8220,976
15.8240,1632
15.8260,2112
15.8280,2960
15.8300,1472
15.8320,1488
15.8340,4545
15.8360,1152
15.8380,1616
15.8400,1328
15.8420,1040
15.8440,784
15.8460,2000
15.8480,1744
15.8500,1568
15.8520,1856
15.8540,1712
15.8560,2496
15.8580,1360
15.8600,1936
15.8620,1728
15.8640,2528
15.8660,1184
15.8680,1200
15.8700,1424
15.8720,1024
15.8740,944
15.8760,1440
15.8780,1200
15.8800,1312
15.8820,1456
15.8840,6961
15.8860,5841
15.8880,864
15.8900,2128
15.8920,1136
15.8940,1664
15.8960,1552
15.8980,1216
15.9000,1200
15.9020,848
15.9040,1104
15.9060,1296
15.9080,3168
15.9100,1088
15.9120,1728
15.9140,1488
15.9160,1440
15.9180,992
15.9200,3168
15.9220,1936
15.9240,1376
15.9260,960
15.9280,992
15.9300,1056
15.9320,5617
15.9340,2272
15.9360,1296
15.9380,1216
15.9400,1008
15.9420,1376
15.9440,1184
15.9460,1120
15.9480,4113
15.9500,8113
15.9520,7713
15.9540,1280
15.9560,3392
15.9580,1328
15.9600,1552
15.9620,2096
15.9640,11266
15.9660,3504
15.9680,1952
15.9700,3888
15.9720,1328
15.9740,992
15.9760,1536
15.9780,1216
15.9800,1200
15.9820,1328
15.9840,2048
15.9860,1552
15.9880,2096
15.9900,1760
15.9920,1248
15.9940,2880
15.9960,1920
15.9980,720
16.0000,1424
16.0020,1120
16.0040,1488
16.0060,4865
16.0080,3120
16.0100,1504
16.0120,1440
16.0140,4913
16.0160,1184
16.0180,1408
16.0200,992
16.0220,1232
16.0240,1072
16.0260,1472
16.0280,1216
16.0300,992
16.0320,672
16.0340,4945
16.0360,1232
16.0380,784
16.0400,2320
16.0420,2576
16.0440,2336
16.0460,3424
16.0480,3904
16.0500,7377
16.0520,6449
16.0540,4385
16.0560,5457
16.0580,1680
16.0600,1312
16.0620,1056
16.0640,2336
16.0660,3680
16.0680,7361
16.0700,6065
16.0720,2640
16.0740,1920
16.0760,1360
16.0780,1152
16.0800,7857
16.0820,16612
16.0840,10546
16.0860,13331
16.0880,12739
16.0900,2496
16.0920,1168
16.0940,672
16.0960,1712
16.0980,1104
16.1000,848
16.1020,1344
16.1040,784
16.1060,2128
16.1080,1792
16.1100,2080
16.1120,3920
16.1140,1424
16.1160,944
16.1180,1392
16.1200,3104
16.1220,832
16.1240,11858
16.1260,3840
16.1280,3904
16.1300,2528
16.1320,3392
16.1340,2192
16.1360,3184
16.1380,1904
16.1400,3680
16.1420,1072
16.1440,960
16.1460,1216
16.1480,2688
16.1500,2512
16.1520,1104
16.1540,5281
16.1560,2048
16.1580,1296
16.1600,2384
16.1620,1456
16.1640,1904
16.1660,2320
16.1680,1024
16.1700,4529
16.1720,3840
16.1740,3328
16.1760,944
16.1780,2576
16.1800,5937
16.1820,2128
16.1840,2112
16.1860,2304
16.1880,3232
16.1900,1552
16.1920,1088
16.1940,5921
16.1960,4032
16.1980,2624
16.2000,1504
16.2020,1696
16.2040,1296
16.2060,2432
16.2080,1856
16.2100,3120
16.2120,1520
16.2140,6049
16.2160,944
16.2180,992
16.2200,3296
16.2220,1104
16.2240,1872
16.2260,5793
16.2280,1824
16.2300,1120
16.2320,1216
16.2340,2176
16.2360,1696
16.2380,2192
16.2400,960
16.2420,3296
16.2440,1056
16.2460,2448
16.2480,1248
16.2500,3328
16.2520,1664
16.2540,2240
16.2560,1040
16.2580,6401
16.2600,1824
16.2620,2480
16.2640,3120
16.2660,1584
16.2680,1328
16.2700,1312
16.2720,2576
16.2740,4369
16.2760,832
16.2780,2896
16.2800,6833
16.2820,1760
16.2840,1632
16.2860,3536
16.2880,7073
16.2900,6705
16.2920,1664
16.2940,7937
16.2960,3392
16.2980,1632
16.3000,2496
16.3020,2880
16.3040,5057
16.3060,2608
16.3080,4577
16.3100,3328
16.3120,2064
16.3140,5025
16.3160,6417
16.3180,4545
16.3200,1904
16.3220,1168
16.3240,6289
16.3260,4673
16.3280,2272
16.3300,3728
16.3320,1328
16.3340,7649
16.3360,6433
16.3380,1984
16.3400,3136
16.3420,1072
16.3440,1280
16.3460,6465
16.3480,1856
16.3500,1856
16.3520,1360
16.3540,1600
16.3560,1088
16.3580,9650
16.3600,9010
16.3620,7057
16.3640,2272
16.3660,7265
16.3680,1952
16.3700,2848
16.3720,1056
16.3740,1680
16.3760,6481
16.3780,896
16.3800,3872
16.3820,720
16.3840,5633
16.3860,3040
16.3880,4785
16.3900,8882
16.3920,6433
16.3940,1952
16.3960,1360
16.3980,5761
16.4000,3088
16.4020,5089
16.4040,14899
16.4060,19956
16.4080,1856
16.4100,5393
16.4120,1184
16.4140,13155
16.4160,3632
16.4180,12931
16.4200,1344
16.4220,2608
16.4240,1312
16.4260,4257
16.4280,976
16.4300,976
16.4320,3040
16.4340,864
16.4360,5665
16.4380,15283
16.4400,13059
16.4420,4241
16.4440,30855
16.4460,6849
16.4480,7553
16.4500,1072
16.4520,4657
16.4540,16532
16.4560,3152
16.4580,4513
16.4600,7985
16.4620,1104
16.4640,6977
16.4660,7921
16.4680,8274
16.4700,16980
16.4720,1024
16.4740,1200
16.4760,2448
16.4780,5553
16.4800,1344
16.4820,1824
16.4840,7729
16.4860,6129
16.4880,4545
16.4900,13411
16.4920,2656
16.4940,14771
16.4960,7329
16.4980,3664
16.5000,1440
16.5020,6385
16.5040,6289
16.5060,1296
16.5080,1232
16.5100,1440
16.5120,7105
16.5140,3376
16.5160,13123
16.5180,11874
16.5200,28727
16.5220,1600
16.5240,1520
16.5260,16804
16.5280,1600
16.5300,4080
16.5320,8450
16.5340,6593
16.5360,1424
16.5380,11986
16.5400,23845
16.5420,19444
16.5440,2192
16.5460,2816
16.5480,10514
16.5500,3344
16.5520,9778
16.5540,1968
16.5560,4705
16.5580,15267
16.5600,2592
16.5620,1888
16.5640,4113
16.5660,2832
16.5680,7409
16.5700,5217
16.5720,9634
16.5740,11202
16.5760,1456
16.5780,17828
16.5800,20901
16.5820,13619
16.5840,6753
16.5860,2992
16.5880,19764
16.5900,7729
16.5920,11474
16.5940,1488
16.5960,2320
16.5980,5393
16.6000,1632
16.6020,15043
16.6040,8530
16.6060,21973
16.6080,22117
16.6100,18948
16.6120,1696
16.6140,2784
16.6160,14387
16.6180,2736
16.6200,1728
16.6220,8834
16.6240,13923
16.6260,4833
16.6280,23605
16.6300,33512
16.6320,4561
16.6340,8466
16.6360,9122
16.6380,8145
16.6400,1968
16.6420,9714
16.6440,1200
16.6460,14563
16.6480,960
16.6500,20789
16.6520,22709
16.6540,3984
16.6560,10194
16.6580,3072
16.6600,19556
16.6620,1376
16.6640,4032
16.6660,9650
16.6680,18100
16.6700,21189
16.6720,11922
16.6740,20805
16.6760,1744
16.6780,7137
16.6800,10594
16.6820,12851
16.6840,18580
16.6860,21205
16.6880,11090
16.6900,3744
16.6920,1616
16.6940,8177
16.6960,7409
16.6980,1152
16.7000,14339
16.7020,8498
16.7040,3856
16.7060,3376
16.7080,6273
16.7100,5137
16.7120,1632
16.7140,1536
16.7160,9362
16.7180,18228
16.7200,10850
16.7220,15171
16.7240,1888
16.7260,6161
16.7280,7009
16.7300,12723
16.7320,13459
16.7340,1568
16.7360,1840
16.7380,24710
16.7400,1440
16.7420,2480
16.7440,11266
16.7460,4289
16.7480,25398
16.7500,5153
16.7520,24533
16.7540,13891
16.7560,6945
16.7580,16948
16.7600,24165
16.7620,22981
16.7640,2368
16.7660,17284
16.7680,15795
16.7700,23237
16.7720,11858
16.7740,17972
16.7760,3264
16.7780,22341
16.7800,1120
16.7820,9026
16.7840,6673
16.7860,2240
16.7880,5697
16.7900,14003
16.7920,6449
16.7940,4561
16.7960,8850
16.7980,8177
16.8000,7489
16.8020,32856
16.8040,7393
16.8060,30663
16.8080,9634
16.8100,14275
16.8120,12611
16.8140,17508
16.8160,12947
16.8180,14275
16.8200,1344
16.8220,14099
16.8240,15043
16.8260,12114
16.8280,20180
16.8300,1616
16.8320,1536
16.8340,1184
16.8360,4337
16.8380,1936
16.8400,1584
16.8420,9570
16.8440,2912
16.8460,20757
16.8480,10130
16.8500,3808
16.8520,1808
16.8540,6465
16.8560,1136
16.8580,5073
16.8600,24085
16.8620,6497
16.8640,9762
16.8660,1728
16.8680,2288
16.8700,18132
16.8720,18948
16.8740,2128
16.8760,15843
16.8780,13139
16.8800,15795
16.8820,4161
16.8840,1232
16.8860,20180
16.8880,5489
16.8900,8226
16.8920,20148
16.8940,1952
16.8960,2496
16.8980,22629
16.9000,7745
16.9020,11090
16.9040,23093
16.9060,3152
16.9080,5473
16.9100,2272
16.9120,13619
16.9140,2624
16.9160,9186
16.9180,21093
16.9200,4401
16.9220,992
16.9240,20420
16.9260,16836
16.9280,24373
16.9300,4673
16.9320,19988
16.9340,6209
16.9360,3680
16.9380,4993
16.9400,12707
16.9420,12130
16.9440,1984
16.9460,7649
16.9480,22917
16.9500,2000
16.9520,2832
16.9540,14611
16.9560,2576
16.9580,17220
16.9600,9010
16.9620,2944
16.9640,13187
16.9660,7633
16.9680,6801
16.9700,3072
16.9720,2880
16.9740,7169
16.9760,5889
16.9780,2912
16.9800,3152
16.9820,12579
16.9840,1968
16.9860,11026
16.9880,12499
16.9900,10882
16.9920,2608
16.9940,1584
16.9960,27654
16.9980,9394
17.0000,2192
17.0020,2208
17.0040,2512
17.0060,21653
17.0080,4161
17.0100,13907
17.0120,8161
17.0140,27718
17.0160,6785
17.0180,3152
17.0200,30519
17.0220,23909
17.0240,8914
17.0260,10258
17.0280,16500
17.0300,16195
17.0320,15283
17.0340,2976
17.0360,3568
17.0380,2224
17.0400,13667
17.0420,19556
17.0440,10930
17.0460,10578
17.0480,23621
17.0500,15203
17.0520,2624
17.0540,2272
17.0560,41834
17.0580,3440
17.0600,7809
17.0620,20036
17.0640,3152
17.0660,10498
17.0680,1296
17.0700,960
17.0720,1648
17.0740,4801
17.0760,1472
17.0780,2256
17.0800,6561
17.0820,1584
17.0840,11986
17.0860,1424
17.0880,9154
17.0900,896
17.0920,3376
17.0940,12499
17.0960,4177
17.0980,27862
17.1000,1888
17.1020,24469
17.1040,3328
17.1060,36040
17.1080,5937
17.1100,35032
17.1120,2272
17.1140,12931
17.1160,19860
17.1180,2144
17.1200,1776
17.1220,3568
17.1240,14595
17.1260,2880
17.1280,8514
17.1300,25926
17.1320,8802
17.1340,2224
17.1360,11650
17.1380,14547
17.1400,2080
17.1420,6449
17.1440,4641
17.1460,12483
17.1480,13587
17.1500,9346
17.1520,11586
17.1540,3120
17.1560,11490
17.1580,10018
17.1600,14179
17.1620,9138
17.1640,6033
17.1660,9490
17.1680,15411
17.1700,12547
17.1720,2240
17.1740,19508
17.1760,32872
17.1780,5265
17.1800,8354
17.1820,1232
17.1840,5249
17.1860,18500
17.1880,2176
17.1900,3888
17.1920,1344
17.1940,6801
17.1960,21509
17.1980,2128
17.2000,1504
17.2020,2256
17.2040,3536
17.2060,1776
17.2080,5761
17.2100,3040
17.2120,2944
17.2140,5889
17.2160,7089
17.2180,2560
17.2200,34008
17.2220,816
17.2240,9490
17.2260,7201
17.2280,14355
17.2300,8802
17.2320,1456
17.2340,8049
17.2360,10754
17.2380,20949
17.2400,5153
17.2420,12451
17.2440,3376
17.2460,6305
17.2480,8754
17.2500,2720
17.2520,2576
17.2540,4673
17.2560,6273
17.2580,1440
17.2600,8290
17.2620,13971
17.2640,2816
17.2660,5201
17.2680,18452
17.2700,18564
17.2720,13843
17.2740,11458
17.2760,1344
17.2780,6929
17.2800,10642
17.2820,19844
17.2840,15443
17.2860,12963
17.2880,2704
17.2900,12563
17.2920,10866
17.2940,4513
17.2960,6577
17.2980,7953
17.3000,20468
17.3020,29159
17.3040,19412
17.3060,5377
17.3080,3616
17.3100,1312
17.3120,4481
17.3140,3504
17.3160,8033
17.3180,6625
17.3200,11874
17.3220,14563
17.3240,5473
17.3260,9026
17.3280,14643
17.3300,4161
17.3320,2832
17.3340,16708
17.3360,7393
17.3380,3280
17.3400,22389
17.3420,14355
17.3440,9746
17.3460,21925
17.3480,26310
17.3500,4849
17.3520,4113
17.3540,18500
17.3560,3472
17.3580,8161
17.3600,4993
17.3620,1888
17.3640,19908
17.3660,1232
17.3680,12803
17.3700,3984
17.3720,3920
17.3740,24614
17.3760,19364
17.3780,1168
17.3800,1312
17.3820,8802
17.3840,2240
17.3860,14339
17.3880,7729
17.3900,11442
17.3920,1856
17.3940,3504
17.3960,5137
17.3980,4097
17.4000,7457
17.4020,4113
17.4040,2368
17.4060,1280
17.4080,14243
17.4100,11810
17.4120,8274
17.4140,6881
17.4160,7873
17.4180,8946
17.4200,2624
17.4220,30247
17.4240,2224
17.4260,15523
17.4280,3360
17.4300,8177
17.4320,5409
17.4340,22309
17.4360,6193
17.4380,5825
17.4400,12242
17.4420,2208
17.4440,7057
17.4460,7441
17.4480,9922
17.4500,5889
17.4520,4401
17.4540,2720
17.4560,13635
17.4580,12403
17.4600,3264
17.4620,1760
17.4640,12947
17.4660,23349
17.4680,12979
17.4700,2096
17.4720,1744
17.4740,2048
17.4760,9458
17.4780,13907
17.4800,10946
17.4820,4961
17.4840,1920
17.4860,2208
17.4880,18436
17.4900,14147
17.4920,13571
17.4940,9906
17.4960,9490
17.4980,15955
17.5000,16484
17.5020,1088
17.5040,2656
17.5060,1344
17.5080,6097
17.5100,1312
17.5120,1152
17.5140,2576
17.5160,18756
17.5180,22053
17.5200,23621
17.5220,11954
17.5240,4785
17.5260,11218
17.5280,12723
17.5300,1424
17.5320,7569
17.5340,6289
17.5360,2560
17.5380,5393
17.5400,27094
17.5420,5553
17.5440,15523
17.5460,21429
17.5480,14131
17.5500,1104
17.5520,14467
17.5540,27222
17.5560,14051
17.5580,1792
17.5600,15299
17.5620,24565
17.5640,8770
17.5660,10034
17.5680,9298
17.5700,7457
17.5720,16452
17.5740,2848
17.5760,2656
17.5780,4449
17.5800,3232
17.5820,16227
17.5840,13827
17.5860,3840
17.5880,8642
17.5900,12835
17.5920,31447
17.5940,20821
17.5960,27094
17.5980,14851
17.6000,17348
17.6020,1792
17.6040,12178
17.6060,13075
17.6080,1536
17.6100,3344
17.6120,1552
17.6140,3232
17.6160,7009
17.6180,1408
17.6200,4785
17.6220,4048
17.6240,8177
17.6260,9106
17.6280,2704
17.6300,8194
17.6320,1344
17.6340,1264
17.6360,22949
17.6380,2944
17.6400,10658
17.6420,12595
17.6440,4401
17.6460,3584
17.6480,13731
17.6500,3968
17.6520,4225
17.6540,32567
17.6560,22277
17.6580,4241
17.6600,1088
17.6620,9954
17.6640,4929
17.6660,1696
17.6680,13715
17.6700,2992
17.6720,12547
17.6740,2784
17.6760,11570
17.6780,1744
17.6800,1840
17.6820,7729
17.6840,3984
17.6860,8530
17.6880,10274
17.6900,1296
17.6920,6273
17.6940,22245
17.6960,13859
17.6980,4273
17.7000,15507
17.7020,6145
17.7040,27942
17.7060,19524
17.7080,11682
17.7100,12258
17.7120,2960
17.7140,1264
17.7160,1888
17.7180,16339
17.7200,2272
17.7220,3792
17.7240,4097
17.7260,13635
17.7280,8177
17.7300,7649
17.7320,4417
17.7340,21589
17.7360,22805
17.7380,2512
17.7400,16916
17.7420,1504
17.7440,6401
17.7460,5409
17.7480,12995
17.7500,18868
17.7520,9362
17.7540,14771
17.7560,13827
17.7580,30215
17.7600,2000
17.7620,5697
17.7640,2336
17.7660,8210
17.7680,4000
17.7700,10530
17.7720,10002
17.7740,2800
17.7760,8514
17.7780,3408
17.7800,15187
17.7820,16420
17.7840,3248
17.7860,16596
17.7880,7841
17.7900,1888
17.7920,5377
17.7940,3504
17.7960,4097
17.7980,1840
17.8000,9042
17.8020,1568
17.8040,2000
17.8060,3872
17.8080,11234
17.8100,6209
17.8120,1328
17.8140,10338
17.8160,1616
17.8180,6337
17.8200,13987
17.8220,3472
17.8240,7297
17.8260,17700
17.8280,12082
17.8300,3216
17.8320,5905
17.8340,6929
17.8360,10978
17.8380,14675
17.8400,7953
17.8420,1632
17.8440,23349
17.8460,2016
17.8480,27670
17.8500,12066
17.8520,1952
17.8540,11346
17.8560,2608
17.8580,19044
17.8600,15107
17.8620,2864
17.8640,8033
17.8660,23461
17.8680,1920
17.8700,2000
17.8720,3760
17.8740,7825
17.8760,3216
17.8780,4865
17.8800,17588
17.8820,19428
17.8840,4753
17.8860,23765
17.8880,1344
17.8900,2832
17.8920,20901
17.8940,1888
17.8960,2320
17.8980,23429
17.9000,11666
17.9020,14435
17.9040,22421
17.9060,8386
17.9080,5601
17.9100,8226
17.9120,13571
17.9140,1296
17.9160,9058
17.9180,9250
17.9200,12883
17.9220,10290
17.9240,8850
17.9260,10258
17.9280,3216
17.9300,8274
17.9320,6817
17.9340,1568
17.9360,2528
17.9380,6833
17.9400,8097
17.9420,3392
17.9440,2176
17.9460,8194
17.9480,23381
17.9500,17668
17.9520,2384
17.9540,10962
17.9560,1216
17.9580,10594
17.9600,5969
17.9620,2976
17.9640,17492
17.9660,18772
17.9680,1024
17.9700,2304
17.9720,1488
17.9740,3920
17.9760,5185
17.9780,6225
17.9800,3808
17.9820,4593
17.9840,1360
17.9860,10178
17.9880,10818
17.9900,10386
17.9920,11778
17.9940,19156
17.9960,2064
17.9980,3552
18.0000,30679
18.0020,23269
18.0040,27478
18.0060,1488
18.0080,3120
18.0100,2208
18.0120,9730
18.0140,2272
18.0160,2976
18.0180,1520
18.0200,8017
18.0220,4113
18.0240,1552
18.0260,816
18.0280,9154
18.0300,1968
18.0320,1744
18.0340,1472
18.0360,2640
18.0380,1568
18.0400,1664
18.0420,2816
18.0440,13059
18.0460,1312
18.0480,3552
18.0500,1936
18.0520,1360
18.0540,3136
18.0560,11138
18.0580,2144
18.0600,4321
18.0620,1008
18.0640,1072
18.0660,14947
18.0680,4689
18.0700,3984
18.0720,1296
18.0740,6673
18.0760,20100
18.0780,2000
18.0800,19236
18.0820,2688
18.0840,1584
18.0860,4929
18.0880,14467
18.0900,1360
18.0920,1840
18.0940,2080
18.0960,8914
18.0980,15251
18.1000,1920
18.1020,2256
18.1040,5601
18.1060,4305
18.1080,26134
18.1100,8834
18.1120,15363
18.1140,4369
18.1160,6977
18.1180,1680
18.1200,912
18.1220,1504
18.1240,9298
18.1260,1216
18.1280,9762
18.1300,11842
18.1320,7585
18.1340,4337
18.1360,14019
18.1380,17140
18.1400,26950
18.1420,9394
18.1440,7297
18.1460,8290
18.1480,8017
18.1500,1936
18.1520,6497
18.1540,5825
18.1560,9506
18.1580,1024
18.1600,1104
18.1620,10066
18.1640,992
18.1660,2176
18.1680,1408
18.1700,5473
18.1720,7777
18.1740,10194
18.1760,25414
18.1780,1184
18.1800,6209
18.1820,1936
18.1840,2624
18.1860,2000
18.1880,4369
18.1900,2896
18.1920,11586
18.1940,3216
18.1960,1120
18.1980,5281
18.2000,20132
18.2020,2672
18.2040,3664
18.2060,20965
18.2080,17668
18.2100,1008
18.2120,5601
18.2140,25830
18.2160,3584
18.2180,10130
18.2200,1664
18.2220,8113
18.2240,3328
18.2260,8498
18.2280,5233
18.2300,10210
18.2320,1936
18.2340,11842
18.2360,1568
18.2380,2944
18.2400,4449
18.2420,960
18.2440,1376
18.2460,1792
18.2480,1216
18.2500,9074
18.2520,1792
18.2540,10130
18.2560,7857
18.2580,15651
18.2600,1328
18.2620,8177
18.2640,2640
18.2660,1568
18.2680,2000
18.2700,11954
18.2720,3328
18.2740,4817
18.2760,4929
18.2780,1440
18.2800,4561
18.2820,37801
18.2840,7777
18.2860,12355
18.2880,7553
18.2900,8033
18.2920,848
18.2940,4401
18.2960,11090
18.2980,3200
18.3000,4177
18.3020,3408
18.3040,7649
18.3060,4961
18.3080,2816
18.3100,1632
18.3120,4080
18.3140,3888
18.3160,20629
18.3180,2384
18.3200,3392
18.3220,7153
18.3240,1808
18.3260,4129
18.3280,11682
18.3300,1952
18.3320,34696
18.3340,8962
18.3360,19892
18.3380,6033
18.3400,11330
18.3420,5201
18.3440,912
18.3460,6977
18.3480,11346
18.3500,1312
18.3520,15891
18.3540,2432
18.3560,2064
18.3580,19860
18.3600,4097
18.3620,1584
18.3640,13587
18.3660,26726
18.3680,11410
18.3700,13811
18.3720,9794
18.3740,944
18.3760,8658
18.3780,1040
18.3800,8274
18.3820,13747
18.3840,8194
18.3860,6497
18.3880,4064
18.3900,2016
18.3920,7329
18.3940,1840
18.3960,31175
18.3980,2448
18.4000,14387
18.4020,1248
18.4040,3072
18.4060,2848
18.4080,16868
18.4100,9650
18.4120,20276
18.4140,9954
18.4160,3216
18.4180,6657
18.4200,9426
18.4220,17988
18.4240,2320
18.4260,1984
18.4280,9170
18.4300,6097
18.4320,17588
18.4340,17924
18.4360,4177
18.4380,4897
18.4400,5889
18.4420,2672
18.4440,3504
18.4460,9154
18.4480,3008
18.4500,11618
18.4520,12739
18.4540,1056
18.4560,5025
18.4580,12435
18.4600,2864
18.4620,12018
18.4640,1680
18.4660,18196
18.4680,2768
18.4700,2592
18.4720,14115
18.4740,5905
18.4760,2976
18.4780,6129
18.4800,9346
18.4820,18788
18.4840,8081
18.4860,1712
18.4880,960
18.4900,13283
18.4920,2816
18.4940,16083
18.4960,15235
18.4980,4897
18.5000,6161
18.5020,11394
18.5040,17668
18.5060,1344
18.5080,18276
18.5100,15683
18.5120,4769
18.5140,1008
18.5160,5681
18.5180,11730
18.5200,14643
18.5220,13139
18.5240,6721
18.5260,4625
18.5280,10418
18.5300,2224
18.5320,4593
18.5340,13843
18.5360,3600
18.5380,4545
18.5400,1920
18.5420,1440
18.5440,6433
18.5460,8370
18.5480,8898
18.5500,2656
18.5520,17348
18.5540,24437
18.5560,10674
18.5580,8658
18.5600,3888
18.5620,6673
18.5640,17460
18.5660,33208
18.5680,8514
18.5700,4929
18.5720,11730
18.5740,3264
18.5760,2976
18.5780,28166
18.5800,8145
18.5820,33512
18.5840,1824
18.5860,4881
18.5880,10114
18.5900,18820
18.5920,8850
18.5940,14243
18.5960,1680
18.5980,6817
18.6000,16788
18.6020,5153
18.6040,10466
18.6060,2752
18.6080,6577
18.6100,992
18.6120,9346
18.6140,13907
18.6160,1344
18.6180,1408
18.6200,2128
18.6220,5697
18.6240,2704
18.6260,28935
18.6280,1968
18.6300,36008
18.6320,8258
18.6340,3024
18.6360,3104
18.6380,8258
18.6400,19620
18.6420,7361
18.6440,5841
18.6460,3120
18.6480,8626
18.6500,4865
18.6520,5665
18.6540,1616
18.6560,18980
18.6580,1440
18.6600,14851
18.6620,6913
18.6640,3344
18.6660,17316
18.6680,2720
18.6700,2064
18.6720,7777
18.6740,17332
18.6760,16051
18.6780,4048
18.6800,832
18.6820,1232
18.6840,2960
18.6860,14131
18.6880,12339
18.6900,3552
18.6920,2160
18.6940,13619
18.6960,12355
18.6980,15219
18.7000,5185
18.7020,1600
18.7040,7313
18.7060,4801
18.7080,5329
18.7100,1648
18.7120,7905
18.7140,4577
18.7160,12307
18.7180,4289
18.7200,1232
18.7220,7185
18.7240,1168
18.7260,3904
18.7280,2384
18.7300,2112
18.7320,4016
18.7340,9826
18.7360,18596
18.7380,2576
18.7400,10466
18.7420,1184
18.7440,3248
18.7460,5553
18.7480,3664
18.7500,1200
18.7520,3600
18.7540,5649
18.7560,1120
18.7580,8177
18.7600,2560
18.7620,1184
18.7640,3456
18.7660,1072
18.7680,3776
18.7700,3072
18.7720,1984
18.7740,1312
18.7760,4897
18.7780,5553
18.7800,2320
18.7820,18068
18.7840,2768
18.7860,14035
18.7880,2176
18.7900,21125
18.7920,5057
18.7940,1168
18.7960,18644
18.7980,7201
18.8000,22725
18.8020,3232
18.8040,3968
18.8060,10754
18.8080,1152
18.8100,3392
18.8120,6593
18.8140,2400
18.8160,10706
18.8180,9826
18.8200,14979
18.8220,1376
18.8240,11266
18.8260,1248
18.8280,16019
18.8300,2912
18.8320,7905
18.8340,16692
18.8360,10882
18.8380,7169
18.8400,3888
18.8420,24870
18.8440,23861
18.8460,5985
18.8480,18068
18.8500,4449
18.8520,1472
18.8540,1824
18.8560,25222
18.8580,6289
18.8600,3248
18.8620,10930
18.8640,1792
18.8660,4897
18.8680,1536
18.8700,2096
18.8720,17412
18.8740,19588
18.8760,10290
18.8780,1328
18.8800,11042
18.8820,15891
18.8840,1744
18.8860,21221
18.8880,2656
18.8900,5009
18.8920,5937
18.8940,18100
18.8960,1808
18.8980,10786
18.9000,6529
18.9020,2768
18.9040,4673
18.9060,864
18.9080,3424
18.9100,2512
18.9120,3520
18.9140,1296
18.9160,2112
18.9180,3552
18.9200,13123
18.9220,16388
18.9240,5345
18.9260,18372
18.9280,1312
18.9300,8177
18.9320,2144
18.9340,1680
18.9360,2848
18.9380,9426
18.9400,17700
18.9420,20244
18.9440,32792
18.9460,7409
18.9480,1040
18.9500,1728
18.9520,2128
18.9540,16307
18.9560,11906
18.9580,13283
18.9600,9250
18.9620,3392
18.9640,8674
18.9660,20693
18.9680,6897
18.9700,3712
18.9720,3968
18.9740,1968
18.9760,7681
18.9780,12563
18.9800,23589
18.9820,5713
18.9840,5841
18.9860,7505
18.9880,2608
18.9900,3216
18.9920,1952
18.9940,7905
18.9960,1712
18.9980,7777
19.0000,5953
19.0020,13411
19.0040,4801
19.0060,3456
19.0080,24838
19.0100,8354
19.0120,29943
19.0140,5313
19.0160,2720
19.0180,1744
19.0200,4161
19.0220,6065
19.0240,1232
19.0260,1712
19.0280,8578
19.0300,19988
19.0320,18324
19.0340,1328
19.0360,2128
19.0380,11138
19.0400,16996
19.0420,3376
19.0440,4064
19.0460,12851
19.0480,3552
19.0500,8177
19.0520,7585
19.0540,2064
19.0560,17108
19.0580,5281
19.0600,8786
19.0620,5361
19.0640,8402
19.0660,9250
19.0680,1952
19.0700,1728
19.0720,2896
19.0740,2576
19.0760,13827
19.0780,2704
19.0800,22341
19.0820,4737
19.0840,17812
19.0860,8482
19.0880,15635
19.0900,1296
19.0920,6545
19.0940,11842
19.0960,1312
19.0980,3760
19.1000,3616
19.1020,5825
19.1040,2384
19.1060,6353
19.1080,15011
19.1100,2208
19.1120,6337
19.1140,3344
19.1160,4161
19.1180,1680
19.1200,1936
19.1220,6913
19.1240,14851
19.1260,2256
19.1280,12595
19.1300,1104
19.1320,8754
19.1340,5153
19.1360,2848
19.1380,1504
19.1400,2496
19.1420,1024
19.1440,2240
19.1460,3024
19.1480,4689
19.1500,4625
19.1520,10418
19.1540,5825
19.1560,7329
19.1580,7825
19.1600,5521
19.1620,12595
19.1640,8177
19.1660,1760
19.1680,10482
19.1700,2352
19.1720,1088
19.1740,5905
19.1760,5569
19.1780,3840
19.1800,7345
19.1820,4225
19.1840,6529
19.1860,3600
19.1880,3600
19.1900,1360
19.1920,1248
19.1940,15075
19.1960,2496
19.1980,1440
19.2000,10306
19.2020,2064
19.2040,1936
19.2060,2560
19.2080,10082
19.2100,10946
19.2120,12355
19.2140,8242
19.2160,3616
19.2180,1488
19.2200,4577
19.2220,992
19.2240,5825
19.2260,25958
19.2280,16436
19.2300,37257
19.2320,1296
19.2340,8129
19.2360,11026
19.2380,2144
19.2400,7121
19.2420,2768
19.2440,8546
19.2460,3648
19.2480,5009
19.2500,2304
19.2520,9826
19.2540,1856
19.2560,3984
19.2580,25670
19.2600,1152
19.2620,3536
19.2640,4289
19.2660,16724
19.2680,1808
19.2700,19268
19.2720,7457
19.2740,8274
19.2760,15251
19.2780,2720
19.2800,2064
19.2820,1344
19.2840,7937
19.2860,2080
19.2880,6449
19.2900,1008
19.2920,18244
19.2940,4257
19.2960,2528
19.2980,15843
19.3000,12034
19.3020,28935
19.3040,6913
19.3060,5905
19.3080,9394
19.3100,7857
19.3120,3088
19.3140,36312
19.3160,17892
19.3180,16307
19.3200,9506
19.3220,4129
19.3240,21685
19.3260,1872
19.3280,3072
19.3300,3888
19.3320,7697
19.3340,1328
19.3360,1936
19.3380,10770
19.3400,1200
19.3420,18084
19.3440,8129
