Tempo(s),EMG_Value
0.089911,4000
0.091347,3904
0.091778,3296
0.092753,3616
0.093748,3520
0.094745,3552
0.095746,3888
0.096766,4369
0.097753,3936
0.098747,4433
0.099746,4513
0.100746,4481
0.101745,3504
0.102745,4609
0.103746,3200
0.104743,4273
0.105745,5185
0.106746,4609
0.107747,3856
0.108745,3792
0.109745,4609
0.110746,5361
0.111745,4225
0.112746,4641
0.113747,4417
0.114746,4433
0.115745,4433
0.116744,3872
0.117745,3136
0.118745,4369
0.119745,4785
0.120743,4209
0.121745,4433
0.122745,4257
0.123745,3792
0.124745,5201
0.125744,3616
0.126745,5137
0.127743,4241
0.128747,2992
0.129745,5345
0.130745,4177
0.131746,4625
0.132745,4257
0.133745,3872
0.134743,5473
0.135745,5921
0.136746,4048
0.137745,3168
0.138747,3184
0.139746,3536
0.140746,4625
0.141745,3392
0.142745,3184
0.143744,4641
0.144747,2496
0.145745,4449
0.146744,6417
0.147744,5409
0.148744,4417
0.149745,5697
0.150747,5009
0.151745,4977
0.152746,4032
0.153744,2880
0.154746,3296
0.155746,5201
0.156745,6497
0.157744,4865
0.158747,4032
0.159742,3920
0.160774,4289
0.161753,4048
0.162747,3424
0.163746,3504
0.164746,3136
0.165744,4177
0.166744,3984
0.167746,2992
0.168743,4753
0.169745,3680
0.170745,5025
0.171745,4993
0.172746,6929
0.173745,3616
0.174745,3856
0.175746,4497
0.176746,6161
0.177745,4433
0.178745,3664
0.179745,4545
0.180745,4225
0.181747,4449
0.182747,4032
0.183744,3904
0.184744,3552
0.185745,5761
0.186747,4161
0.187745,4257
0.188742,3472
0.189746,4545
0.190745,4945
0.191743,4145
0.192745,3776
0.193745,4513
0.194744,3840
0.195746,3872
0.196745,5105
0.197746,4673
0.198747,4145
0.199746,4048
0.200744,3872
0.201748,5201
0.202747,5121
0.203746,3280
0.204743,3728
0.205745,5329
0.206745,3824
0.207743,3808
0.208745,4321
0.209745,5505
0.210744,4016
0.211745,3888
0.212747,4945
0.213747,5201
0.214747,3120
0.215745,4657
0.216745,4593
0.217745,5425
0.218746,4929
0.219745,3952
0.220744,3664
0.221743,5249
0.222745,4561
0.223742,3216
0.224764,3120
0.225747,3280
0.226746,4353
0.227745,4929
0.228743,4016
0.229747,4016
0.230744,4833
0.231745,5857
0.232746,3728
0.233746,4577
0.234744,5361
0.235745,4865
0.236747,4080
0.237745,3264
0.238744,3920
0.239745,5793
0.240745,4016
0.241744,3968
0.242745,3920
0.243746,4625
0.244745,5217
0.245745,3168
0.246745,3856
0.247745,3616
0.248745,5713
0.249744,3392
0.250748,3472
0.251744,4193
0.252747,6049
0.253743,5265
0.254744,4465
0.255746,3728
0.256744,3120
0.257745,3488
0.258745,3744
0.259744,4385
0.260743,5153
0.261746,4193
0.262746,4161
0.263744,4881
0.264745,5217
0.265745,4657
0.266746,4433
0.267745,3424
0.268745,4481
0.269747,4080
0.270744,4497
0.271746,4048
0.272747,6609
0.273745,4241
0.274745,3648
0.275745,3088
0.276745,4369
0.277746,5377
0.278746,4465
0.279744,4433
0.280745,4113
0.281745,3936
0.282744,3792
0.283747,4289
0.284746,4273
0.285745,4689
0.286746,4321
0.287744,4064
0.288760,4657
0.395846,4961
0.396477,3984
0.396898,3504
0.397279,3856
0.397653,4177
0.398102,5185
0.398472,5137
0.398853,5025
0.399225,4193
0.399614,4145
0.399989,4481
0.400361,4369
0.400744,3328
0.401121,4177
0.401745,3216
0.402745,6097
0.403747,4993
0.404744,4993
0.405745,4337
0.406746,4705
0.407745,3616
0.408747,5361
0.409743,4433
0.410746,2880
0.411745,4769
0.412745,6289
0.413744,4513
0.414744,3552
0.415813,4577
0.416749,5809
0.417746,4737
0.418745,4401
0.419744,3104
0.420745,4097
0.421747,5553
0.422743,3792
0.423747,5249
0.424745,4849
0.425743,3264
0.426746,3680
0.427745,4097
0.428747,3232
0.429745,4129
0.430747,4897
0.431745,5121
0.432745,3712
0.433746,4449
0.434745,4289
0.435742,4625
0.436747,4561
0.437747,3792
0.438746,3792
0.439745,5697
0.440744,4129
0.441746,4497
0.442745,4961
0.443745,5345
0.444747,4000
0.445747,4289
0.446745,4305
0.447744,4449
0.448745,3472
0.449746,4497
0.450745,3504
0.451746,4417
0.452746,4481
0.453744,5777
0.454744,4433
0.455747,3872
0.456747,3808
0.457743,3984
0.458744,3328
0.459745,3344
0.460744,5441
0.461744,6081
0.462746,3968
0.463745,4016
0.464746,4113
0.465743,4145
0.466745,4657
0.467745,4016
0.468747,4561
0.469746,3120
0.470747,4016
0.471747,3504
0.472747,4545
0.473745,4993
0.474745,3888
0.475747,5121
0.476746,3968
0.477745,4465
0.478745,4016
0.479784,5585
0.480758,4032
0.481747,3040
0.482745,3632
0.483744,4561
0.484745,4737
0.485745,4080
0.486746,5281
0.487744,3600
0.488746,3360
0.489746,5185
0.490746,7329
0.491745,3952
0.492747,3120
0.493745,4769
0.494746,4513
0.495746,5585
0.496746,4577
0.497745,3392
0.498746,3984
0.499746,6849
0.500744,3520
0.501745,3504
0.502743,3008
0.503745,4657
0.504747,4641
0.505746,4113
0.506745,4993
0.507745,4129
0.508746,3520
0.509746,4433
0.510746,5617
0.511746,3936
0.512745,4945
0.513743,4817
0.514747,3488
0.515745,3520
0.516745,3536
0.517743,5265
0.518745,5089
0.519743,4032
0.520747,3264
0.521744,4321
0.522747,4000
0.523746,4625
0.524744,5921
0.525745,3760
0.526744,4609
0.527745,4417
0.528745,3808
0.529745,3536
0.530746,4433
0.531745,3984
0.532744,4369
0.533745,3904
0.534745,5153
0.535746,3760
0.536744,3456
0.537746,6881
0.538745,5457
0.539745,3856
0.540745,3760
0.541747,3280
0.542743,3040
0.543793,4113
0.544759,5521
0.545749,6945
0.546746,3888
0.547745,3520
0.548747,5041
0.549746,4305
0.550744,3920
0.551746,6017
0.552746,4625
0.553746,3472
0.554744,3744
0.555745,3824
0.556745,3360
0.557744,3728
0.558745,3968
0.559743,3712
0.560747,3360
0.561746,2832
0.562743,5569
0.563744,5313
0.564746,3872
0.565745,4273
0.566745,5521
0.567744,5777
0.568747,4273
0.569745,4064
0.570746,3776
0.571745,3792
0.572743,4801
0.573745,5009
0.574745,4401
0.575747,4080
0.576746,3904
0.577746,3872
0.578747,3760
0.579744,4016
0.580747,3296
0.581748,4609
0.582746,5409
0.583745,5009
0.584746,3616
0.585745,5153
0.586743,5025
0.739156,4577
0.739945,4257
0.740499,3600
0.741032,4097
0.741554,4769
0.742148,5121
0.742672,4449
0.743202,4369
0.743731,4321
0.744273,3728
0.744801,5873
0.745327,3856
0.745859,5521
0.746389,4481
0.746919,4321
0.747450,4177
0.747985,5281
0.748746,4401
0.749744,4433
0.750745,4016
0.751746,4048
0.752744,3536
0.753743,3904
0.754745,3760
0.755742,4321
0.756746,3920
0.757746,5169
0.758746,4497
0.759746,3584
0.760745,3840
0.761746,2400
0.762745,4064
0.763745,6449
0.764747,5537
0.765745,5217
0.766744,5041
0.767745,3488
0.768746,5009
0.769743,4689
0.770745,4321
0.771745,4113
0.772745,4929
0.773744,4048
0.774744,3120
0.775746,3328
0.776745,4993
0.777747,6273
0.778746,5921
0.779744,4353
0.780745,3984
0.781745,4577
0.782744,4289
0.783745,4048
0.784744,3488
0.785745,3984
0.786745,5153
0.787745,4849
0.788746,3632
0.789745,3760
0.790744,3968
0.791747,4913
0.792745,3760
0.793745,4417
0.794744,3600
0.795744,3984
0.796745,5649
0.797745,4689
0.798746,4561
0.799743,3856
0.800767,3472
0.801749,6017
0.802745,4129
0.803745,4369
0.804746,4353
0.805743,2992
0.806747,2976
0.807745,4257
0.808747,3856
0.809743,4225
0.810746,6513
0.811746,3552
0.812744,3648
0.813746,5009
0.814743,4753
0.815746,5601
0.816745,5553
0.817745,4705
0.818744,3856
0.819746,4449
0.820743,3504
0.821747,4161
0.822745,3520
0.823748,3888
0.824745,3680
0.825743,3248
0.826743,3632
0.827746,3792
0.828745,4625
0.829745,4801
0.830746,5073
0.831746,4929
0.832747,4145
0.833746,3856
0.834746,3408
0.835745,3968
0.836745,4529
0.837746,5425
0.838745,4913
0.839743,4321
0.840746,3440
0.841746,4129
0.842744,4321
0.843744,5105
0.844746,4961
0.845746,3792
0.846747,3456
0.847745,3584
0.848746,3264
0.849745,6529
0.850745,3920
0.851744,4177
0.852744,4769
0.853745,4833
0.854744,4529
0.855745,4161
0.856746,3808
0.857743,4337
0.858745,5969
0.859744,5553
0.860743,3744
0.861745,3360
0.862745,4369
0.863744,4705
0.864763,4497
0.865749,4129
0.866746,3648
0.867746,4609
0.868744,5377
0.869748,4913
0.870744,3680
0.871746,4113
0.872743,3952
0.873745,3744
0.874744,3296
0.875745,3392
0.876745,4753
0.877746,4897
0.878745,3312
0.879745,3328
0.880747,4705
0.881746,7905
0.882744,3760
0.883745,3856
0.884743,3488
0.885747,5073
0.886743,4577
0.887746,4145
0.888744,4401
0.889745,3104
0.890746,5009
0.891744,4593
0.892744,3504
0.893745,5681
0.894745,5201
0.895745,4705
0.896744,3776
0.897745,4305
0.898744,3984
0.899744,3680
0.900747,3376
0.901744,4929
0.902747,4993
0.903745,3600
0.904745,5777
0.905746,4977
0.906745,4913
0.907747,4080
0.908745,3792
0.909745,3232
0.910745,3280
0.911744,6721
0.912747,6337
0.913744,4945
0.914746,4289
0.915745,3360
0.916746,3808
0.917745,3584
0.918747,5345
0.919744,6145
0.920745,3552
0.921745,3728
0.922745,3904
0.923747,3328
0.924746,4000
0.925746,4000
0.926744,4016
0.927745,4385
0.928763,5297
0.929756,4064
0.930745,4993
1.079392,4385
1.080360,3760
1.081084,4048
1.081775,5585
1.082456,5265
1.083204,5073
1.083884,4305
1.084560,3472
1.085245,4801
1.085950,4721
1.086626,4289
1.087312,4337
1.087998,4385
1.088677,4481
1.089361,4481
1.090049,3808
1.090739,4353
1.091441,4753
1.092128,4048
1.092815,5281
1.093504,4657
1.094195,4401
1.094882,3600
1.095566,4737
1.096254,3840
1.096942,5441
1.097745,4225
1.098746,3008
1.099746,3360
1.100746,4673
1.101745,5873
1.102746,4737
1.103747,3664
1.104746,3472
1.105745,5457
1.106745,3104
1.107744,5521
1.108746,4449
1.109744,3760
1.110747,4305
1.111746,5089
1.112744,3680
1.113745,3168
1.114746,3120
1.115746,5345
1.116745,5553
1.117745,4417
1.118745,3600
1.119744,4225
1.120772,5377
1.121755,4561
1.122748,3744
1.123746,3504
1.124746,4881
1.125745,4048
1.126745,4577
1.127745,4929
1.128745,4129
1.129746,4417
1.130745,4881
1.131746,4929
1.132745,3664
1.133743,4993
1.134744,3744
1.135744,3824
1.136745,4145
1.137744,4289
1.138745,4161
1.139746,4145
1.140744,3664
1.141745,6145
1.142745,3520
1.143745,3296
1.144744,4353
1.145745,3856
1.146746,4593
1.147745,5521
1.148745,3792
1.149746,5009
1.150743,5025
1.151744,3648
1.152745,3408
1.153745,3296
1.154745,4401
1.155747,4145
1.156746,4673
1.157747,4673
1.158747,4865
1.159745,4177
1.160742,4737
1.161746,4625
1.162747,4705
1.163745,3904
1.164745,3168
1.165745,4048
1.166745,5073
1.167745,6465
1.168747,4689
1.169746,4369
1.170746,4401
1.171747,4177
1.172745,4385
1.173745,3968
1.174745,3664
1.175746,3280
1.176746,6321
1.177745,3392
1.178743,3456
1.179746,3792
1.180745,4113
1.181746,4529
1.182745,4865
1.183743,3872
1.184763,3744
1.185751,4673
1.186750,4064
1.187745,3968
1.188746,4609
1.189745,4641
1.190745,4913
1.191744,5889
1.192743,4273
1.193745,4417
1.194747,4673
1.195746,4945
1.196745,4080
1.197747,3904
1.198745,4048
1.199747,4609
1.200746,3536
1.201745,4000
1.202744,3760
1.203745,3648
1.204746,4289
1.205746,4817
1.206745,4481
1.207747,4097
1.208745,4801
1.209745,4609
1.210743,3712
1.211746,3856
1.212743,3680
1.213745,4193
1.214745,5073
1.215746,5281
1.216747,6433
1.217745,4257
1.218745,4064
1.219746,4129
1.220746,3792
1.221746,3536
1.222745,4401
1.223747,3808
1.224744,4257
1.225745,4353
1.226746,3376
1.227745,4097
1.228745,4385
1.229746,5345
1.230742,4048
1.231745,3280
1.232746,4545
1.233745,3840
1.234745,3072
1.235747,5217
1.236747,6097
1.237744,5665
1.238746,3808
1.239746,4753
1.240746,4193
1.241746,4080
1.242743,3472
1.243745,4753
1.244745,3472
1.245747,3664
1.246745,4177
1.247745,3600
1.248763,6241
1.249753,4369
1.250748,3840
1.251749,5457
1.252744,4433
1.253746,3520
1.254745,4609
1.255746,3968
1.256745,4241
1.257745,3856
1.258745,3760
1.259743,2992
1.260745,3216
1.261747,4641
1.262743,5633
1.263746,4833
1.264744,4769
1.265745,3792
1.266745,4289
1.267743,4961
1.268746,5217
1.269745,4433
1.270746,3728
1.383145,3968
1.383633,4064
1.383927,4449
1.384174,4369
1.384412,4193
1.384676,4625
1.384922,5329
1.385159,4353
1.385394,4529
1.385650,5041
1.385896,4625
1.386745,3952
1.387745,4529
1.388743,4161
1.389745,4097
1.390747,4225
1.391746,4129
1.392747,3344
1.393743,5729
1.394745,4113
1.395744,3984
1.396744,4337
1.397745,4321
1.398744,4193
1.399747,3408
1.400747,3264
1.401745,3600
1.402745,4545
1.403745,3776
1.404744,4273
1.405745,4193
1.406743,4801
1.407747,4545
1.408744,5473
1.409747,3552
1.410745,3648
1.411745,3904
1.412745,4529
1.413744,4753
1.414746,3488
1.415746,4193
1.416746,4801
1.417746,5713
1.418745,6673
1.419743,4097
1.420744,2992
1.421745,3488
1.422744,4305
1.423745,4433
1.424744,3392
1.425745,3152
1.426745,3792
1.427746,4961
1.428745,6529
1.429745,4593
1.430745,3936
1.431744,4817
1.432745,4032
1.433745,3840
1.434746,4000
1.435746,4273
1.436745,3744
1.437746,5121
1.438745,5585
1.439746,4321
1.440766,4801
1.441752,4016
1.442747,3248
1.443746,3424
1.444747,2944
1.445745,3104
1.446746,4897
1.447747,5569
1.448747,3280
1.449745,7553
1.450747,5729
1.451747,4289
1.452744,4513
1.453747,4449
1.454747,4225
1.455745,3984
1.456745,3472
1.457745,3744
1.458745,4705
1.459746,4849
1.460745,5073
1.461746,3920
1.462745,3376
1.463746,4032
1.464745,3792
1.465745,4497
1.466744,4529
1.467746,4113
1.468745,4609
1.469745,3392
1.470745,3728
1.471745,4657
1.472745,5793
1.473745,5665
1.474745,4305
1.475744,3472
1.476746,3904
1.477745,4833
1.478746,3904
1.479746,3856
1.480744,3984
1.481745,3552
1.482746,4369
1.483746,4257
1.484745,4593
1.485747,4657
1.486745,4145
1.487747,3904
1.488744,4257
1.489746,4897
1.490745,4753
1.491747,4032
1.492745,3424
1.493747,3584
1.494743,3616
1.495744,4273
1.496747,5057
1.497745,5377
1.498746,4753
1.499746,4433
1.500746,3536
1.501742,3824
1.502745,3392
1.503748,3344
1.504760,3856
1.505751,3584
1.506749,5473
1.507746,5409
1.508745,4641
1.509745,4129
1.510747,4321
1.511745,5777
1.512744,5073
1.513745,4177
1.514745,3744
1.515743,3392
1.516747,3328
1.517747,4449
1.518746,4913
1.519744,6657
1.520743,5217
1.521745,4817
1.522745,4129
1.523746,3376
1.524745,4321
1.525745,4257
1.526745,4673
1.527745,4481
1.528745,4529
1.529743,3744
1.530745,3456
1.531744,3792
1.532747,4000
1.533745,4113
1.534747,4689
1.535745,3648
1.536745,3360
1.537745,3776
1.538747,4417
1.539744,5857
1.540745,5553
1.541744,6017
1.542747,3680
1.543745,3616
1.544743,3840
1.545744,4161
1.546745,3616
1.547745,5361
1.548744,4913
1.549746,3712
1.550745,3680
1.551745,4097
1.552744,4241
1.553745,3856
1.554743,4929
1.555745,3840
1.556744,3968
1.557747,4881
1.558746,4225
1.559745,3536
1.560742,4385
1.561745,5665
1.562747,4321
1.563745,4689
1.564745,4097
1.565745,4048
1.566744,4545
1.567746,4961
1.568760,4145
1.569750,3168
1.570747,3648
1.571747,3968
1.572746,3584
1.573747,5729
1.574744,4417
1.728043,4161
1.728698,4545
1.729144,4817
1.729537,4064
1.729935,4129
1.730387,4497
1.730786,4785
1.731175,4897
1.731567,4897
1.731980,4513
1.732368,5457
1.732766,4705
1.733164,3968
1.733746,3936
1.734742,3920
1.735747,4305
1.736743,3552
1.737745,3216
1.738745,4801
1.739747,4337
1.740747,4241
1.741744,4257
1.742745,4177
1.743745,4625
1.744745,5009
1.745744,3680
1.746745,3888
1.747745,4257
1.748745,4401
1.749747,3712
1.750746,4000
1.751745,5953
1.752745,5057
1.753747,5041
1.754746,4225
1.755745,3872
1.756743,3728
1.757746,3872
1.758747,3744
1.759745,4337
1.760767,4289
1.761748,4385
1.762746,4097
1.763746,3840
1.764743,3392
1.765746,3584
1.766746,3360
1.767745,4417
1.768746,4817
1.769745,4849
1.770747,5201
1.771746,3680
1.772743,4193
1.773745,5665
1.774744,4016
1.775745,3648
1.776745,4321
1.777744,3936
1.778745,3232
1.779745,3536
1.780745,3776
1.781744,4241
1.782743,4129
1.783747,4161
1.784745,4449
1.785745,4145
1.786744,4161
1.787745,4785
1.788745,3984
1.789747,3520
1.790746,4513
1.791745,4593
1.792744,4609
1.793746,3888
1.794746,3872
1.795745,3248
1.796745,3472
1.797746,3984
1.798745,5057
1.799745,4801
1.800744,4577
1.801747,3904
1.802747,3344
1.803747,3472
1.804747,4961
1.805744,5553
1.806743,3808
1.807744,3600
1.808747,4673
1.809744,4353
1.810744,3728
1.811746,3792
1.812744,3520
1.813745,3584
1.814745,3984
1.815745,4737
1.816744,3664
1.817744,4417
1.818745,3840
1.819743,4080
1.820746,3744
1.821745,3296
1.822746,3488
1.823745,3872
1.824758,5329
1.825750,3904
1.826748,4497
1.827743,3936
1.828745,4177
1.829746,3456
1.830744,3920
1.831746,4289
1.832746,5201
1.833745,3920
1.834746,3872
1.835745,5201
1.836745,4961
1.837745,3392
1.838743,3376
1.839745,3296
1.840745,4881
1.841746,4097
1.842746,4513
1.843745,4689
1.844744,4433
1.845745,3376
1.846745,3440
1.847743,4705
1.848744,4545
1.849746,4177
1.850746,3232
1.851747,3984
1.852746,4529
1.853745,5857
1.854745,4177
1.855746,4161
1.856745,3856
1.857745,4449
1.858747,3600
1.859744,5089
1.860745,4129
1.861745,4080
1.862746,4705
1.863745,3824
1.864746,3904
1.865746,4401
1.866745,3872
1.867745,3616
1.868744,4385
1.869745,6529
1.870746,3968
1.871746,4625
1.872744,4257
1.873745,4064
1.874743,4064
1.875745,4032
1.876745,4177
1.877743,4145
1.878745,4305
1.879747,4032
1.880743,3968
1.881743,4513
1.882744,4225
1.883747,3648
1.884745,4321
1.885744,4129
1.886746,4481
1.887746,4385
1.888762,4097
1.889753,3440
1.890748,4625
1.891748,4145
1.892745,5345
1.893747,4625
1.894747,3408
1.895746,3376
1.896745,3712
1.897744,3312
1.898746,4113
1.899745,5521
1.900745,4753
1.901745,4609
1.902745,4080
1.903745,5649
1.904746,4417
1.905747,5121
1.906744,3648
1.907748,3632
1.908743,4753
1.909742,4257
1.910745,3776
1.911745,3504
1.912747,3984
1.913747,3552
1.914745,3392
1.915744,4177
1.916745,4433
1.917745,5153
1.918747,5441
1.919745,3728
2.064776,3984
2.065573,3600
2.066163,4257
2.066720,4080
2.067267,4225
2.067882,3984
2.068423,4561
2.068972,4417
2.069522,4865
2.070094,3840
2.070639,4385
2.071189,4673
2.071740,4273
2.072287,4129
2.072842,5905
2.073390,5857
2.073944,4945
2.074518,3904
2.075070,3888
2.075747,4401
2.076745,4433
2.077745,3984
2.078745,3888
2.079746,3888
2.080764,3680
2.081751,4161
2.082747,4641
2.083745,4481
2.084746,4241
2.085745,5505
2.086746,4449
2.087745,3808
2.088744,4000
2.089745,4481
2.090745,3840
2.091745,4577
2.092745,4641
2.093746,4048
2.094746,4289
2.095745,3552
2.096743,4048
2.097745,4193
2.098745,3488
2.099745,3616
2.100746,4689
2.101745,4305
2.102745,4241
2.103746,4833
2.104745,3968
2.105745,3712
2.106745,3488
2.107745,3488
2.108746,4177
2.109746,4865
2.110745,4705
2.111745,4881
2.112745,4497
2.113747,4305
2.114744,3936
2.115746,3712
2.116743,4097
2.117746,4369
2.118745,4177
2.119745,4016
2.120746,4529
2.121748,3632
2.122743,3760
2.123744,4769
2.124745,4337
2.125746,3616
2.126745,4401
2.127745,3616
2.128744,3456
2.129747,3472
2.130746,5249
2.131745,4881
2.132746,4945
2.133746,4737
2.134745,4209
2.135745,3984
2.136745,4161
2.137745,4097
2.138745,3936
2.139745,4032
2.140743,3776
2.141744,4865
2.142745,3584
2.143745,4369
2.144768,4481
2.145748,4000
2.146746,4897
2.147743,5089
2.148747,4353
2.149745,3392
2.150746,4833
2.151746,4337
2.152744,3728
2.153745,2880
2.154745,4641
2.155745,4513
2.156747,3456
2.157744,4289
2.158747,4241
2.159745,4064
2.160745,4048
2.161744,4257
2.162745,3376
2.163745,3280
2.164744,3760
2.165745,4833
2.166745,4064
2.167746,4241
2.168745,4048
2.169745,4193
2.170745,5985
2.171744,4433
2.172745,3968
2.173747,3840
2.174745,3936
2.175745,3424
2.176743,3536
2.177744,5777
2.178745,4161
2.179747,3984
2.180744,3680
2.181745,3344
2.182744,3680
2.183745,5969
2.184745,4657
2.185742,3392
2.186746,3664
2.187745,4561
2.188745,4401
2.189747,4000
2.190745,4897
2.191745,5009
2.192744,4913
2.193745,4353
2.194744,3984
2.195745,4016
2.196746,4625
2.197745,3632
2.198746,3728
2.199745,3392
2.200745,5025
2.201747,3984
2.202746,3664
2.203744,3872
2.204745,5137
2.205746,4401
2.206746,6545
2.207744,5505
2.208761,5793
2.209747,3664
2.210745,3488
2.211746,4145
2.212746,3696
2.213746,3344
2.214745,6081
2.215746,3920
2.216747,4385
2.217744,3840
2.218745,3968
2.219746,3728
2.220745,4465
2.221747,4289
2.222745,4753
2.223745,4113
2.224745,3584
2.225746,4369
2.226747,3616
2.227745,4593
2.228745,3856
2.229744,4705
2.230744,4225
2.231746,5393
2.232745,3856
2.233745,3760
2.234746,4064
2.235746,3888
2.236746,3712
2.237744,3904
2.238747,3632
2.239746,3984
2.240745,4689
2.241743,4881
2.242745,4321
2.243747,6113
2.244745,3664
2.245746,4064
2.246745,4353
2.247747,4225
2.248745,3344
2.249743,4032
2.250745,3648
2.251745,3536
2.252747,4689
2.253745,4657
2.254745,5633
2.255746,5089
2.363139,5393
2.364104,4353
2.364839,4561
2.365554,5601
2.366263,5473
2.367041,4129
2.367743,3968
2.368445,4353
2.369152,4769
2.369885,3808
2.370591,3600
2.371297,3408
2.372004,4241
2.372716,3776
2.373420,4385
2.374133,4993
2.374843,4337
2.375576,4641
2.376290,4449
2.377006,5217
2.377724,4048
2.378432,4529
2.379148,3984
2.379867,4113
2.380587,4273
2.381305,4593
2.382023,4417
2.382745,4401
2.383745,4273
2.384747,4513
2.385745,4113
2.386746,3904
2.387745,4673
2.388745,4321
2.389744,3792
2.390747,3312
2.391747,3568
2.392745,3088
2.393743,4193
2.394745,4833
2.395745,4449
2.396746,4545
2.397743,4113
2.398745,3792
2.399746,3984
2.400764,3488
2.401751,3664
2.402747,4000
2.403745,3872
2.404746,4097
2.405745,3824
2.406746,4064
2.407745,4241
2.408745,3904
2.409745,5681
2.410745,5089
2.411745,4016
2.412745,4449
2.413744,4401
2.414747,4433
2.415744,3776
2.416747,4064
2.417744,3936
2.418745,3776
2.419745,3648
2.420746,3760
2.421745,3664
2.422746,3552
2.423745,4529
2.424745,4113
2.425745,6369
2.426744,4225
2.427744,4129
2.428747,4016
2.429745,4689
2.430745,4993
2.431745,4032
2.432745,3472
2.433747,3984
2.434744,3408
2.435743,3984
2.436747,3648
2.437745,3904
2.438746,4064
2.439745,5057
2.440745,4193
2.441743,3920
2.442746,3712
2.443746,4753
2.444746,4385
2.445745,3648
2.446743,3584
2.447744,4177
2.448746,4945
2.449746,4785
2.450745,3728
2.451744,3632
2.452745,3472
2.453747,4993
2.454745,5457
2.455746,4993
2.456747,4385
2.457746,3648
2.458745,3744
2.459746,4225
2.460746,4129
2.461745,3728
2.462745,4241
2.463746,5185
2.464761,4417
2.465749,4113
2.466745,3968
2.467747,3936
2.468746,3680
2.469744,3952
2.470747,5025
2.471746,4929
2.472743,3888
2.473744,3248
2.474746,3328
2.475745,5585
2.476745,5617
2.477745,3664
2.478746,3424
2.479745,3664
2.480744,4385
2.481745,5281
2.482746,4769
2.483744,3968
2.484746,3824
2.485747,3424
2.486744,4161
2.487745,3856
2.488745,4641
2.489745,5153
2.490744,3696
2.491746,3504
2.492745,6849
2.493745,5857
2.494746,3760
2.495745,3840
2.496745,4753
2.497745,4481
2.498745,4657
2.499746,4016
2.500745,3680
2.501746,5009
2.502745,4673
2.503745,4657
2.504745,4097
2.505745,4673
2.506746,4161
2.507744,3376
2.508747,3824
2.509744,3616
2.510746,7041
2.511747,4801
2.522314,5633
2.522541,4913
2.522755,4305
2.522963,4097
2.523170,3792
2.523377,4961
2.523584,5041
2.523798,6113
2.524001,6225
2.524210,5441
2.524747,3792
2.525745,3680
2.526744,3328
2.527746,3248
2.528763,4529
2.529754,3968
2.530749,3776
2.531746,3440
2.532744,3888
2.533746,3840
2.534743,4225
2.535746,3984
2.536745,4321
2.537744,4321
2.538745,4321
2.539745,4369
2.540745,3552
2.541745,3984
2.542745,3824
2.543745,6097
2.544744,4289
2.545747,4705
2.546747,3472
2.547746,3792
2.548747,4048
2.549745,5553
2.550745,3584
2.551743,3680
2.552745,3792
2.553745,4785
2.554743,5281
2.555744,4193
2.556746,3712
2.719112,4064
2.719647,4401
2.720142,3856
2.720454,4433
2.720752,4000
2.721108,4561
2.721391,3984
2.721677,3872
2.721967,4161
2.722270,4080
2.722559,4529
2.722847,5201
2.723744,4113
2.724744,3712
2.725746,3632
2.726748,4913
2.727744,4545
2.728745,4097
2.729746,5297
2.730746,3856
2.731745,4064
2.732745,3728
2.733743,3552
2.734745,3856
2.735744,4657
2.736745,4129
2.737745,4497
2.738748,4289
2.739748,3520
2.740745,4689
2.741745,5521
2.742744,5265
2.743745,4305
2.744742,4016
2.745745,4561
2.746747,3840
2.747743,3760
2.748746,4305
2.749745,3840
2.750747,3648
2.751747,4113
2.752743,3456
2.753744,3696
2.754745,6433
2.755746,4801
2.756743,3808
2.757746,3936
2.758746,3936
2.759746,4273
2.760745,3824
2.761744,5185
2.762746,4145
2.763745,4305
2.764744,3936
2.765744,3648
2.766745,4321
2.767745,5073
2.768746,4064
2.769747,4000
2.770745,3904
2.771746,4833
2.772746,4513
2.773744,4305
2.774745,4193
2.775746,3808
2.776745,3632
2.777746,3920
2.778747,3904
2.779748,4129
2.780745,3744
2.781744,3728
2.782746,4385
2.783745,5073
2.784760,5073
2.785751,4785
2.786747,3664
2.787747,3728
2.788748,4529
2.789746,4705
2.790745,3648
2.791743,3520
2.792745,4497
2.793743,6305
2.794747,3920
2.795744,3552
2.796745,3520
2.797746,3760
2.798745,4529
2.799744,4032
2.800746,3584
2.801747,6081
2.802744,3808
2.803746,3600
2.804744,4577
2.805746,4769
2.806746,5073
2.807746,3904
2.808745,4193
2.809745,3728
2.810746,4369
2.811744,3984
2.812745,3664
2.813745,3728
2.814745,4609
2.815746,4769
2.816746,3904
2.817745,3600
2.818746,5985
2.819746,4721
2.820745,4129
2.821744,3568
2.822745,3728
2.823744,3888
2.824742,4113
2.825746,4257
2.826743,3536
2.827747,6465
2.828746,5633
2.829744,4561
2.830747,4449
2.831746,3520
2.832746,4529
2.833745,6353
2.834744,4529
2.835747,3648
2.836744,3744
2.837744,4032
2.838745,4737
2.839747,4257
2.840748,4545
2.841746,3504
2.842744,4145
2.843745,4609
2.844745,4577
2.845744,3984
2.846744,3856
2.847745,4625
2.848761,4785
2.849753,5169
2.850746,3680
2.851746,3840
2.852745,4689
2.853746,4048
2.854747,3552
2.855745,3872
2.856745,4048
2.857745,3584
2.858748,3760
2.859746,3728
2.860743,4321
2.861745,4881
2.862744,4769
2.863745,4417
2.864745,4032
2.865746,4097
2.866746,4801
2.867743,4433
2.868746,4113
2.869746,3888
2.870747,3808
2.871747,5009
2.872744,3824
2.873746,3920
2.874745,3696
2.875746,3520
2.876744,5873
2.877744,4193
2.878746,4080
2.879745,3776
2.880746,4225
2.881743,3872
2.882745,4433
2.883745,5777
2.884745,4897
2.885746,3824
2.886745,3616
2.887744,3968
2.888745,3808
2.889747,3168
2.890746,3504
2.891745,3632
2.892745,4193
2.893743,4080
2.894747,4145
2.895745,4241
2.896745,4881
2.897745,4625
2.898745,4449
2.899746,4433
2.900744,3712
2.901744,3792
2.902745,4529
2.903745,3504
2.904746,3856
2.905746,4705
2.906743,4449
2.907746,4609
2.908745,4369
2.909745,3664
2.910747,4145
3.061686,3888
3.062398,3920
3.062878,3968
3.063319,4225
3.063760,3904
3.064257,4000
3.064694,3680
3.065134,4817
3.065570,5009
3.066034,4913
3.066473,3664
3.066913,4225
3.067352,3856
3.067799,3984
3.068238,4961
3.068745,4705
3.069743,4881
3.070747,3632
3.071746,4305
3.072743,4097
3.073746,4369
3.074745,3760
3.075745,4193
3.076746,5729
3.077745,4993
3.078745,4016
3.079744,4193
3.080746,4481
3.081745,5057
3.082746,3856
3.083745,4129
3.084747,3936
3.085746,4161
3.086745,3952
3.087744,3744
3.088745,4161
3.089744,4577
3.090745,4097
3.091745,4000
3.092745,3872
3.093745,5025
3.094746,3728
3.095746,4881
3.096744,4193
3.097745,4016
3.098745,4080
3.099746,4689
3.100745,4161
3.101744,5297
3.102744,4000
3.103745,4016
3.104768,4833
3.105748,5665
3.106746,4385
3.107745,3712
3.108746,3536
3.109745,4353
3.110743,3712
3.111744,4609
3.112745,3872
3.113745,5345
3.114745,4497
3.115745,4225
3.116744,3680
3.117745,3712
3.118746,5073
3.119743,4273
3.120746,3920
3.121745,4369
3.122746,3840
3.123745,4353
3.124747,3648
3.125745,4449
3.126746,3904
3.127747,3872
3.128746,3968
3.129745,4737
3.130746,4385
3.131746,4321
3.132745,4257
3.133745,4064
3.134746,3872
3.135745,4753
3.136745,4161
3.137745,3808
3.138747,3584
3.139745,3392
3.140745,4385
3.141745,4385
3.142745,3760
3.143744,4657
3.144747,5265
3.145746,4193
3.146745,4385
3.147745,4016
3.148745,4881
3.149746,3680
3.150746,3600
3.151747,3856
3.152745,4225
3.153747,3664
3.154745,3744
3.155748,4353
3.156745,4193
3.157746,3744
3.158745,3648
3.159744,4369
3.160747,4833
3.161745,3424
3.162745,4016
3.163745,4401
3.164745,4353
3.165746,3968
3.166744,4016
3.167871,4369
3.168754,4625
3.169747,4032
3.170747,4129
3.171745,3744
3.172747,3808
3.173743,4369
3.174746,3936
3.175744,3904
3.176743,5345
3.177745,4737
3.178745,4193
3.179745,4000
3.180747,3888
3.181746,3776
3.182746,4385
3.183745,4193
3.184744,4433
3.185746,3920
3.186746,4225
3.187746,3600
3.188745,3920
3.189743,4177
3.190746,4321
3.191745,5009
3.192746,6753
3.193744,5457
3.194746,3888
3.195745,3760
3.196745,4433
3.197747,3968
3.198745,4465
3.199745,4753
3.200746,3808
3.201747,3840
3.202745,4193
3.203746,3856
3.204745,4385
3.205747,4529
3.206745,3872
3.207745,3680
3.208745,5009
3.209745,5201
3.210746,4097
3.211745,3424
3.212747,3376
3.213743,4273
3.214748,4769
3.215745,4161
3.216743,3936
3.217745,3744
3.218743,4064
3.219746,5697
3.220745,4449
3.221745,3856
3.222747,4113
3.223745,4225
3.224745,4000
3.225745,4433
3.226745,4769
3.227745,4385
3.228748,4145
3.229744,4113
3.230744,4865
3.231745,4625
3.232765,4000
3.233752,3728
3.234745,3872
3.235746,4145
3.236747,3616
3.237745,4000
3.238745,4193
3.239745,5057
3.240748,4097
3.241747,4129
3.242745,3840
3.243745,3584
3.244746,4032
3.245744,4337
3.246747,4817
3.247746,4577
3.248747,3792
3.249744,3360
3.250747,3664
3.251745,4513
3.252746,4016
3.361639,5185
3.362499,4865
3.363127,4225
3.363730,4161
3.364320,4321
3.364982,5393
3.365571,3712
3.366165,4369
3.366763,3472
3.367370,4321
3.367971,4481
3.368562,5137
3.369161,4385
3.369759,4048
3.370355,3856
3.370955,4545
3.371547,4545
3.372171,4609
3.372774,6209
3.373371,3888
3.373973,4161
3.374746,4129
3.375747,3488
3.376745,4753
3.377745,3712
3.378744,3984
3.379747,4977
3.380745,5665
3.381746,3984
3.382744,3840
3.383747,4064
3.384745,4385
3.385745,4753
3.386744,4369
3.387745,3872
3.388744,4113
3.389744,3776
3.390746,4353
3.391746,4497
3.392746,3600
3.393746,3696
3.394745,3760
3.395745,4273
3.396747,4433
3.397744,4497
3.398746,4289
3.399745,4097
3.400746,3424
3.401744,4337
3.402746,4545
3.403744,4273
3.404747,4529
3.405746,3776
3.406745,5201
3.407748,4817
3.408745,3632
3.409746,4177
3.410745,3952
3.411745,3984
3.412745,4833
3.413744,3872
3.414745,3920
3.415745,4641
3.416745,4497
3.417745,4657
3.418745,4657
3.419745,4497
3.420745,3920
3.421744,3760
3.422744,4289
3.423745,4945
3.424763,5089
3.425750,4753
3.426749,4369
3.427745,4145
3.428745,4113
3.429745,4641
3.430745,4193
3.431745,4097
3.432743,4016
3.433747,5057
3.434743,4993
3.435745,4113
3.436744,4032
3.437745,4385
3.438744,4032
3.439745,4401
3.440745,4305
3.441747,3680
3.442746,4193
3.443746,4497
3.444744,3968
3.445747,3712
3.446747,4833
3.447745,4225
3.448747,3872
3.449746,4048
3.450745,4657
3.451746,4913
3.452745,3984
3.453745,4321
3.454745,4225
3.455746,5153
3.456744,5361
3.457746,4689
3.458746,4609
3.459745,4465
3.460744,4865
3.461746,4161
3.462745,4113
3.463745,5009
3.464745,4529
3.465745,3680
3.466746,4721
3.467746,3616
3.468746,4145
3.469745,4609
3.470747,4289
3.471745,3616
3.472745,4113
3.473744,4737
3.474745,5297
3.475745,4881
3.476746,3792
3.477746,5841
3.478744,5377
3.479747,3888
3.480745,4289
3.481745,3984
3.482744,4673
3.483746,3888
3.484747,4801
3.485744,4385
3.486745,4305
3.487743,4257
3.488760,4129
3.489751,3552
3.490744,4225
3.491743,4032
3.492746,4369
3.493744,4048
3.494744,4593
3.495747,3952
3.496744,4241
3.497747,3680
3.498747,4593
3.499743,4753
3.500745,4497
3.501744,4865
3.502746,4257
3.503745,3728
3.504745,5089
3.505745,4801
3.506746,4577
3.507745,4513
3.508747,4321
3.509743,4881
3.510746,4545
3.511746,4305
3.512746,4048
3.513745,4785
3.514744,4321
3.515746,4369
3.516744,4513
3.517747,3792
3.518745,5121
3.519745,3920
3.520745,4113
3.521745,4257
3.522747,4497
3.523745,4241
3.524745,4577
3.525747,4401
3.526743,4577
3.527745,4225
3.528746,4385
3.529747,4545
3.530746,3968
3.531745,3872
3.532745,4481
3.533746,4497
3.534744,3904
3.535745,4241
3.536745,4737
3.537745,4177
3.538746,4016
3.539745,4737
3.540748,5521
3.541744,4897
3.542745,4401
3.543746,4353
3.544746,4161
3.545747,3584
3.546743,6209
3.547745,4625
3.548745,4609
3.549744,4113
3.550743,4561
3.551745,4657
3.552762,4401
3.709549,4177
3.710570,4897
3.711366,5201
3.712128,4129
3.712882,3696
3.713711,5313
3.714461,4993
3.715219,4481
3.715978,4769
3.716758,4000
3.717515,4641
3.718270,5249
3.719027,4577
3.719785,4561
3.720542,4321
3.721299,4417
3.722062,4064
3.722847,4129
3.723607,4289
3.724371,5089
3.725139,4321
3.725902,3856
3.726664,5089
3.727432,4097
3.728197,4225
3.728965,4817
3.729734,3984
3.730499,4417
3.731271,4401
3.732039,5217
3.732809,5601
3.733578,4225
3.734351,3808
3.735159,3312
3.735938,5041
3.736745,4609
3.737746,4113
3.738745,3856
3.739747,3904
3.740745,4161
3.741745,4881
3.742745,4529
3.743745,4353
3.744765,3280
3.745752,5233
3.746746,4993
3.747743,4353
3.748747,3840
3.749746,3936
3.750745,4497
3.751746,4289
3.752743,5169
3.753746,3328
3.754742,4417
3.755746,4641
3.756744,4929
3.757746,4289
3.758745,4273
3.759746,4097
3.760745,4769
3.761747,2816
3.762747,4097
3.763744,5521
3.764747,5073
3.765744,5057
3.776013,5457
3.776242,4769
3.776451,4481
3.776653,3968
3.776869,4433
3.777073,4193
3.777279,3728
3.777485,3728
3.777696,4481
3.777913,4609
3.778745,4849
3.779746,4497
3.780745,4401
3.781744,4449
3.782744,5377
3.783745,4529
3.784745,4385
3.785744,5137
3.786745,6401
3.787745,5329
3.788745,4657
3.789746,4225
3.790746,4209
3.791744,4369
3.792747,5713
3.793745,4257
3.794743,4433
3.795745,4369
3.796744,4289
3.797742,4193
3.798743,4833
3.799744,4881
3.800748,4417
3.801745,3712
3.802745,4385
3.803745,4481
3.804746,4673
3.805746,4577
3.806745,5425
3.807745,4769
3.808761,3856
3.809751,4321
3.810751,4129
3.811747,4673
3.812747,4561
3.813747,4929
3.814746,4064
3.815747,4305
3.816743,4817
3.817745,3216
3.818745,4000
3.819745,3904
3.820747,4080
3.821745,4609
3.822745,5393
3.823745,4113
3.824744,4064
3.825746,4961
3.826746,4913
3.827746,3968
3.828747,4129
3.829745,4417
3.830747,4129
3.831745,4385
3.832747,4529
3.833744,3488
3.834745,4833
3.835746,5553
3.836747,4529
3.837746,4273
3.838745,4961
3.839744,5153
3.840745,4737
3.841746,4289
3.842743,5457
3.843746,4577
3.844745,4177
3.845745,4401
3.846744,4193
3.847745,4737
3.848747,3744
3.849745,5121
3.850745,4433
3.851746,4881
3.852744,4497
3.853746,4177
3.854746,3824
3.855744,4929
3.856745,4529
3.857744,4385
3.858747,4097
3.859745,4481
3.860744,5473
3.861745,4369
3.862746,4193
3.863744,5185
3.864744,4545
3.865747,4177
3.866745,4305
3.867745,5121
3.868743,4529
3.869745,4289
3.870747,4577
3.871745,5393
3.872762,3568
3.873748,4064
3.874745,5633
3.875746,4753
3.876745,4561
3.877743,5137
3.878745,4641
3.879745,4721
3.880745,4625
3.881745,3744
3.882746,4401
3.883747,4353
3.884744,5377
3.885746,4417
3.886745,4353
3.887745,4801
3.888746,5569
3.889747,4449
3.890745,5137
3.891744,4273
3.892747,4401
3.893746,5153
3.894744,4641
3.895747,4657
3.896745,4433
3.897745,4401
3.898746,4561
3.899745,4513
3.900744,4625
3.901745,4833
3.902743,5073
4.056338,4737
4.056953,5889
4.057325,4769
4.057662,4305
4.058002,3872
4.058405,3936
4.058748,4753
4.059084,3936
4.059426,4145
4.059783,5713
4.060121,5313
4.060459,4865
4.060800,5441
4.061745,4833
4.062746,4801
4.063745,4449
4.064762,3840
4.065747,4833
4.066745,4321
4.067747,4032
4.068744,4657
4.069746,4625
4.070746,5265
4.071746,4817
4.072745,4497
4.073745,3424
4.074747,4529
4.075743,4961
4.076747,4241
4.077747,4801
4.078746,4881
4.079744,4641
4.080746,4961
4.081745,3424
4.082745,4257
4.083747,4961
4.084741,5345
4.085745,4785
4.086746,4961
4.087745,5265
4.088745,4689
4.089745,3664
4.090746,4433
4.091746,4145
4.092745,4497
4.093746,4625
4.094745,4529
4.095743,5521
4.096746,5601
4.097744,4705
4.098746,4225
4.099747,4080
4.100745,4849
4.101745,6033
4.102746,4993
4.103744,4449
4.104743,4641
4.105743,3984
4.106747,4481
4.107745,5457
4.108745,4369
4.109746,4865
4.110745,4321
4.111745,4801
4.112745,5025
4.113743,4401
4.114745,5297
4.115743,5329
4.116745,4609
4.117746,4497
4.118745,4657
4.119744,4513
4.120746,4833
4.121747,4401
4.122746,4673
4.123743,4225
4.124745,4401
4.125745,4513
4.126745,4321
4.127746,5217
4.128766,4064
4.129754,5089
4.130747,4161
4.131744,6065
4.132744,5569
4.133745,4593
4.134746,5313
4.135746,3968
4.136747,4401
4.137745,3728
4.138746,4753
4.139746,4721
4.140744,4945
4.141746,5857
4.142744,5473
4.143745,5057
4.144744,4513
4.145746,4513
4.146744,4817
4.147747,4513
4.148745,4401
4.149743,5281
4.150745,4657
4.151745,4913
4.152747,4609
4.153745,3488
4.154747,5681
4.155745,5089
4.156745,6017
4.157746,4401
4.158746,4433
4.159745,4817
4.160744,4513
4.161746,4321
4.162746,4545
4.163745,5313
4.164744,4577
4.165745,4225
4.166745,5537
4.167745,5393
4.168744,5185
4.169745,3728
4.170746,4689
4.171745,4881
4.172745,5265
4.173745,5025
4.174744,4625
4.175745,4817
4.176745,4481
4.177746,4913
4.178745,4593
4.179744,5041
4.180746,4561
4.181745,4945
4.182745,5121
4.183746,4433
4.184745,4545
4.185745,4032
4.186746,4993
4.187744,5729
4.188745,4449
4.189744,4801
4.190747,4929
4.191745,4417
4.192760,3376
4.193749,4449
4.194746,4897
4.195745,4769
4.196745,6161
4.197747,4609
4.198746,5057
4.199747,5137
4.200744,4225
4.201745,3424
4.202747,4337
4.203747,5057
4.204743,5265
4.205745,5121
4.206744,4769
4.207744,4769
4.208746,4497
4.209745,3584
4.210745,5681
4.211747,4321
4.212747,4449
4.213745,4401
4.214745,5841
4.215743,4689
4.216745,4129
4.217746,5793
4.218745,4673
4.219746,4577
4.220746,4641
4.221743,4289
4.222746,5217
4.223745,5185
4.224745,4945
4.225745,4785
4.226746,5089
4.227745,4881
4.228744,5393
4.229743,5393
4.230746,4577
4.231745,4369
4.232745,4337
4.233746,3536
4.234745,4385
4.235743,4513
4.236745,4817
4.237743,4561
4.238746,4641
4.239743,4993
4.240744,5633
4.241745,3808
4.242744,5217
4.243745,6401
4.244745,4785
4.245747,4673
4.246745,5169
4.247745,4481
4.362743,4257
4.363477,4881
4.364006,3792
4.364503,4273
4.364994,4561
4.365544,4897
4.366035,3760
4.366520,4913
4.367017,4161
4.367524,4673
4.368020,6337
4.368509,5329
4.369001,5409
4.369488,4305
4.369986,3792
4.370477,4369
4.370976,4353
4.371745,4545
4.372743,4625
4.373746,5569
4.374744,4609
4.375746,5057
4.376745,4865
4.377744,3680
4.378744,4641
4.379744,4577
4.380745,4785
4.381747,4289
4.382745,5057
4.383744,5649
4.384765,5137
4.385751,4737
4.386746,4433
4.387748,4241
4.388743,4609
4.389744,4657
4.390744,4657
4.391744,4673
4.392745,4657
4.393746,3984
4.394744,4000
4.395744,4945
4.396747,5201
4.397743,4689
4.398744,4609
4.399745,4080
4.400745,4353
4.401744,4753
4.402745,4737
4.403747,5297
4.404746,4817
4.405746,5009
4.406743,3632
4.407744,4064
4.408745,4273
4.409745,4481
4.410741,3936
4.411747,4513
4.412745,5169
4.413744,4273
4.414745,4481
4.415744,4785
4.416747,5889
4.417744,5217
4.418745,5329
4.419746,4689
4.420745,5201
4.421746,4465
4.422747,4497
4.423746,4417
4.424745,4449
4.425747,4433
4.426747,4673
4.427744,4801
4.428744,5585
4.429745,5745
4.430744,4689
4.431744,4369
4.432744,5601
4.433745,5201
4.434746,4849
4.435745,5137
4.436746,4737
4.437744,4625
4.438746,5425
4.439745,4481
4.440745,4753
4.441745,3920
4.442743,3920
4.443747,4625
4.444745,4273
4.445745,4865
4.446745,5649
4.447745,5025
4.448762,3728
4.449750,4481
4.450747,5057
4.451747,5377
4.452745,4609
4.453745,5073
4.454745,4897
4.455744,4129
4.456745,4353
4.457747,4273
4.458745,4161
4.459743,4401
4.460747,5953
4.461746,5313
4.462744,5569
4.463744,4305
4.464747,4449
4.465747,3616
4.466745,4865
4.467748,4865
4.468744,5649
4.469745,4609
4.470745,4305
4.471745,4817
4.472745,4913
4.473745,3712
4.474745,5153
4.475746,5329
4.476745,4561
4.477745,4641
4.478745,4561
4.479745,4881
4.480745,5377
4.481746,5201
4.482746,4529
4.483745,4753
4.484744,4385
4.485746,4000
4.486745,4529
4.487747,5585
4.488745,4689
4.489747,4080
4.490746,4577
4.491746,4577
4.492745,4753
4.493745,7041
4.494743,3664
4.495747,4865
4.496745,4289
4.497745,5073
4.498746,4673
4.499745,4449
4.500746,6081
4.501746,4721
4.502743,3712
4.503745,4817
4.504744,5713
4.505744,4161
4.506746,4577
4.507745,4673
4.508745,4449
4.509746,4625
4.510743,3760
4.511745,4513
4.512765,4113
4.513748,4913
4.514745,4401
4.515747,4513
4.516746,5809
4.517746,4657
4.518746,4897
4.519744,3456
4.520745,4881
4.521747,3920
4.522745,4673
4.523746,5137
4.524748,4641
4.525745,4689
4.526745,5345
4.527743,3728
4.528745,4929
4.529745,4097
4.530746,4193
4.531745,4833
4.532746,5281
4.533747,4529
4.534745,4000
4.535745,4241
4.536745,4881
4.537747,4897
4.538746,5169
4.539744,3904
4.540744,4161
4.541744,4097
4.542746,4433
4.543745,3808
4.544743,4048
4.545746,5345
4.546745,4417
4.547745,4225
4.548746,4705
4.549745,4657
4.550746,4385
4.551745,4225
4.552745,3952
4.553745,3840
4.713192,5281
4.714100,5185
4.714776,4545
4.715427,4657
4.716078,5201
4.716794,3840
4.717440,4016
4.718088,3792
4.718733,3888
4.719393,4016
4.720039,4417
4.720686,4048
4.721333,3968
4.721984,3920
4.722628,4113
4.723284,3968
4.723934,4641
4.724596,4497
4.725249,4241
4.725902,4561
4.726553,4449
4.727204,4401
4.727857,4417
4.728745,5329
4.729745,4993
4.730744,4929
4.731745,4337
4.732744,4097
4.733745,4161
4.734744,4257
4.735746,3792
4.736745,3760
4.737745,4145
4.738745,4913
4.739745,4241
4.740746,3776
4.741745,3664
4.742745,3264
4.743743,3104
4.744745,4433
4.745745,5009
4.746744,5537
4.747745,3840
4.748744,4433
4.749747,5249
4.750748,5137
4.751745,3936
4.752747,4241
4.753745,3536
4.754744,4545
4.755747,4977
4.756745,3888
4.757746,4097
4.758745,3488
4.759746,3712
4.760745,5505
4.761746,4145
4.762746,3744
4.763746,4113
4.764745,3968
4.765746,4032
4.766745,3232
4.767868,4305
4.768764,4881
4.769749,3568
4.770747,4225
4.771744,4177
4.772744,4737
4.773745,4321
4.774745,3776
4.775745,3984
4.776744,4337
4.777744,3584
4.778746,3824
4.779745,4241
4.780745,3872
4.781746,4689
4.782745,3648
4.783745,3648
4.784747,4577
4.785744,3744
4.786746,3840
4.787745,3840
4.788747,4945
4.789745,3664
4.790745,3424
4.791743,3984
4.792745,4913
4.793743,6721
4.794744,3904
4.795743,3504
4.796745,3776
4.797746,3632
4.798744,3952
4.799746,4129
4.800744,3904
4.801746,3584
4.802745,3136
4.803746,3904
4.804746,3488
4.805745,4337
4.806747,5665
4.807747,4865
4.808746,3872
4.809745,3616
4.810745,3680
4.811743,3408
4.812747,4305
4.813745,4449
4.814743,5697
4.815747,4881
4.816743,3664
4.817745,3792
4.818744,3808
4.819748,4465
4.820745,5697
4.821745,5473
4.822747,4097
4.823745,3456
4.824747,4032
4.825744,4048
4.826746,4273
4.827744,4000
4.828745,4625
4.829745,4273
4.830745,4433
4.831746,3552
4.832761,3664
4.833752,3696
4.834746,3728
4.835748,3920
4.836745,4433
4.837746,3296
4.838746,4369
4.839745,4449
4.840746,3792
4.841745,3984
4.842744,3728
4.843745,3728
4.844744,3120
4.845745,4417
4.846743,4113
4.847745,4513
4.848747,4048
4.849746,3904
4.850746,3376
4.851745,3280
4.852747,3968
4.853745,4753
4.854745,4785
4.855745,3616
4.856744,3488
4.857745,3760
4.858745,3680
4.859744,3440
4.860745,4289
4.861747,5697
4.862745,4593
4.863743,5009
4.864745,3792
4.865745,4273
4.866745,3904
4.867745,3904
4.868747,4417
4.869745,3248
4.870745,4257
4.871744,4016
4.872745,3296
4.873746,4385
4.874746,4753
4.875746,4529
4.876747,3392
4.877744,3808
4.878743,4000
4.879747,4385
4.880745,5025
4.881745,4897
4.882745,4673
4.883747,3984
4.884745,4193
4.885744,3888
4.886747,3728
4.887746,3472
4.888744,5265
4.889745,4705
4.890746,3920
4.891744,3280
4.892744,3856
4.893743,5409
4.894746,4481
4.895745,4609
4.896758,4016
4.897749,3232
4.898747,4064
4.899745,4193
4.900745,3984
4.901747,3600
4.902745,4673
4.903745,4016
4.904747,4321
5.053994,4673
5.056049,3520
5.057020,3792
5.057871,3120
5.058683,4080
5.059562,3984
5.060372,3840
5.061182,4737
5.061993,4241
5.062824,5025
5.063632,4353
5.064449,3888
5.065258,5153
5.066067,3936
5.066885,3968
5.067693,4016
5.075034,4321
5.075274,4032
5.075486,4353
5.075692,4064
5.075905,4929
5.076116,4177
5.076327,4833
5.076538,4433
5.076752,5249
5.076968,5057
5.077746,4048
5.078746,3728
5.079746,3888
5.080745,3664
5.081745,3776
5.082744,3744
5.083747,3712
5.084743,4321
5.085745,4593
5.086746,4481
5.087745,3984
5.088767,3408
5.089751,4353
5.090748,3328
5.091748,4945
5.092743,4273
5.093746,3696
5.094747,3632
5.095745,3648
5.096746,4273
5.097745,4161
5.098746,5041
5.099746,4433
5.100746,3584
5.101745,3936
5.102744,4016
5.103745,3712
5.104746,4897
5.105744,4177
5.106746,3632
5.107745,4000
5.108745,3552
5.109745,3488
5.110745,3904
5.111746,4817
5.112744,4817
5.113745,3600
5.114745,3536
5.115745,3728
5.116745,4657
5.117748,4769
5.118746,5569
5.119745,5073
5.120745,3712
5.121746,4305
5.122747,5345
5.123747,3664
5.124748,3168
5.125745,4449
5.126743,4529
5.127745,3328
5.128745,3392
5.129746,6449
5.130744,5633
5.131747,4273
5.132744,3936
5.133746,3600
5.134745,3680
5.135747,5041
5.136748,5121
5.137744,4321
5.138746,3808
5.139745,3120
5.140746,4497
5.141745,6241
5.142745,5393
5.143747,3456
5.144744,3536
5.145746,3728
5.146745,3776
5.147747,3424
5.148748,4833
5.149743,4497
5.150745,3936
5.151745,4048
5.152774,3728
5.153754,4497
5.154749,4513
5.155747,4641
5.156747,4529
5.157747,3696
5.158746,3920
5.159744,3664
5.160747,3472
5.161745,4401
5.162745,5153
5.163744,4689
5.164747,3536
5.165745,3904
5.166743,4257
5.167744,4080
5.168746,3776
5.169743,4113
5.170745,3584
5.171746,3408
5.172745,4801
5.173744,4817
5.174746,4417
5.175745,3776
5.176745,4097
5.177746,4048
5.178746,4177
5.179744,4048
5.180745,3696
5.181745,4129
5.182745,3712
5.183746,4193
5.184744,4305
5.185745,3840
5.186745,4048
5.187746,4048
5.188746,4705
5.189745,4097
5.190743,3536
5.191746,3216
5.192746,3376
5.193745,4417
5.194744,4401
5.195746,4353
5.196745,3984
5.197745,4161
5.198746,4577
5.199747,4097
5.200743,4513
5.201744,3904
5.202745,3616
5.203744,4225
5.204744,4481
5.205745,4689
5.206745,3168
5.207748,3088
5.208745,4048
5.209744,6209
5.210745,4513
5.211745,3248
5.212746,4273
5.213744,4097
5.214745,3680
5.215746,4225
5.216762,3856
5.217750,3744
5.218745,4193
5.219746,3696
5.220746,3744
5.221747,3840
5.222744,5825
5.223746,5329
5.224744,3760
5.225745,3712
5.226745,4289
5.227745,4289
5.228745,3616
5.229746,3264
5.230745,5201
5.231745,4305
5.232744,3824
5.233745,4257
5.234747,4945
5.235745,3984
5.236745,3472
5.237744,4369
5.238747,4945
5.239745,4113
5.240747,4929
5.241743,3888
5.242747,3520
5.243745,4769
5.244745,4273
5.245745,4497
5.246745,4641
5.247747,3920
5.248744,4305
5.249745,4080
5.250746,3600
5.408410,4016
5.409047,4321
5.409444,4449
5.409820,3888
5.410186,4321
5.410617,3856
5.410985,4385
5.411351,4193
5.411724,4129
5.412113,3712
5.412478,5121
5.412845,4032
5.413213,4481
5.413745,4080
5.414744,4321
5.415745,4321
5.416746,3728
5.417744,4593
5.418746,3472
5.419746,4273
5.420745,3344
5.421746,3776
5.422745,3808
5.423748,4689
5.424745,4769
5.425745,4113
5.426746,4289
5.427744,3664
5.428745,3472
5.429746,3648
5.430746,3360
5.431745,3424
5.432745,5281
5.433745,5521
5.434744,4000
5.435744,3744
5.436745,4609
5.437745,4000
5.438744,3504
5.439744,3584
5.440743,4993
5.441745,4897
5.442743,3888
5.443745,3600
5.444745,4481
5.445744,4817
5.446745,4561
5.447746,4513
5.448746,4417
5.449747,4113
5.450746,4032
5.451745,4833
5.452744,3664
5.453745,3760
5.454746,3456
5.455747,3776
5.456745,4481
5.457745,4705
5.458746,4433
5.459746,5009
5.460745,4177
5.461745,4032
5.462743,4273
5.463744,3648
5.464744,3776
5.465744,4225
5.466745,3664
5.467746,4193
5.468746,4097
5.469744,3856
5.470744,4064
5.471745,4497
5.472765,5297
5.473750,4945
5.474747,3376
5.475746,3584
5.476743,4321
5.477747,4961
5.478745,4433
5.479743,3920
5.480746,3584
5.481748,3808
5.482744,4481
5.483743,3728
5.484747,4481
5.485746,4289
5.486746,3360
5.487746,3744
5.488746,4689
5.489745,4689
5.490747,5057
5.491745,5585
5.492744,4145
5.493747,4305
5.494745,3632
5.495744,4145
5.496745,4289
5.497747,4353
5.498746,4193
5.499745,3936
5.500747,4032
5.501745,3680
5.502743,3632
5.503744,3936
5.504747,3904
5.505745,4337
5.506746,4369
5.507746,4080
5.508745,4737
5.509746,3856
5.510744,4961
5.511745,4000
5.512746,3680
5.513745,4032
5.514745,4449
5.515745,4145
5.516747,4929
5.517746,4897
5.518746,4401
5.519745,4561
5.520745,4657
5.521746,3680
5.522746,3648
5.523747,3536
5.524747,4417
5.525745,4048
5.526745,3696
5.527745,4113
5.528745,4545
5.529746,4097
5.530744,3488
5.531745,4113
5.532745,3808
5.533747,4625
5.534745,6241
5.535743,3760
5.536758,4401
5.537752,4753
5.538749,3920
5.539746,3776
5.540745,4241
5.541745,4000
5.542745,4289
5.543745,3872
5.544746,4129
5.545745,4064
5.546744,4305
5.547746,3664
5.548745,4193
5.549744,3808
5.550748,3776
5.551744,4048
5.552746,5041
5.553747,4064
5.554745,4161
5.555744,4193
5.556745,4145
5.557746,3808
5.558746,3920
5.559745,3792
5.560746,4193
5.561743,4689
5.562744,4305
5.563746,4449
5.564746,4833
5.565744,4721
5.566747,3792
5.567745,4145
5.568743,3840
5.569747,4913
5.570746,4737
5.571747,4865
5.572746,4769
5.573745,3808
5.574744,3904
5.575745,4689
5.576746,4032
5.577746,4113
5.578745,4161
5.579747,4897
5.580744,4353
5.581746,4449
5.582745,3536
5.583745,4801
5.584747,4016
5.585747,3472
5.586745,4048
5.587746,4000
5.588745,4961
5.589745,4625
5.590744,4401
5.591747,3904
5.592746,3904
5.593745,4833
5.594747,4177
5.595743,3872
5.596745,3760
5.597746,3840
5.598744,4129
5.599745,4145
5.758071,4433
5.758859,5137
5.759403,4417
5.759928,5649
5.760451,5569
5.761040,5441
5.761559,5393
5.762081,4673
5.762600,4577
5.763140,4481
5.763666,3952
5.764193,3680
5.764716,4305
5.765238,4321
5.765761,4865
5.766286,4433
5.766813,3168
5.767746,3856
5.768746,3616
5.769745,4048
5.770745,4481
5.771745,3888
5.772744,4433
5.773745,4769
5.774746,3680
5.775743,4032
5.776745,4689
5.777745,3808
5.778743,4064
5.779746,4225
5.780745,4577
5.781744,4225
5.782746,4032
5.783745,3824
5.784747,4129
5.785745,4032
5.786745,3776
5.787745,4513
5.788745,3696
5.789745,3808
5.790746,4417
5.791747,3392
5.792772,3600
5.793749,4273
5.794746,4305
5.795745,4577
5.796743,4577
5.797746,3936
5.798745,3936
5.799746,4673
5.800744,4737
5.801744,4897
5.802748,4193
5.803747,4161
5.804746,3824
5.805745,3984
5.806745,4113
5.807745,3936
5.808745,4545
5.809747,3920
5.810744,4048
5.811746,4113
5.812743,4865
5.813746,4000
5.814745,4833
5.815745,3872
5.816745,3488
5.817744,4161
5.818743,4673
5.819746,4000
5.820742,5793
5.821747,4529
5.822745,4113
5.823744,4289
5.824743,4881
5.825745,4385
5.826745,5313
5.827745,3632
5.828743,4177
5.829746,4064
5.830745,3776
5.831745,4177
5.832747,4417
5.833748,4689
5.834744,5025
5.835745,4497
5.836746,3920
5.837744,3888
5.838745,3808
5.839745,5473
5.840745,4097
5.841745,4016
5.842746,3632
5.843744,3888
5.844748,3968
5.845746,3712
5.846746,3840
5.847744,4497
5.848746,4048
5.849746,4673
5.850745,4129
5.851745,3776
5.852745,3712
5.853746,4161
5.854743,4449
5.855766,5201
5.856750,4145
5.857748,3904
5.858745,4401
5.859747,4673
5.860746,3744
5.861745,4048
5.862745,3840
5.863745,4961
5.864745,4689
5.865743,5137
5.866745,5345
5.867742,4913
5.868745,3824
5.869745,4113
5.870746,3968
5.871744,3920
5.872745,3968
5.873743,4048
5.874746,4881
5.875745,4305
5.876743,4577
5.877745,4225
5.878745,3872
5.879746,4048
5.880746,3888
5.881746,4545
5.882745,3984
5.883746,3776
5.884748,4000
5.885746,4705
5.886746,3840
5.887744,3904
5.888746,4625
5.889747,4513
5.890746,4641
5.891746,4129
5.892744,4241
5.893746,4417
5.894746,4193
5.895744,4289
5.896745,4625
5.897745,5009
5.898747,4000
5.899743,3920
5.900747,3712
5.901745,4289
5.902746,4833
5.903745,4801
5.904745,4433
5.905747,3904
5.906747,4641
5.907746,4080
5.908743,4064
5.909746,4353
5.910745,4417
5.911747,3952
5.912744,4481
5.913746,4417
5.914745,5649
5.915745,5185
5.916744,4753
5.917745,4225
5.918745,4000
5.919780,4401
5.920754,3712
5.921747,4129
5.922745,4481
5.923745,3968
5.924745,3936
5.925745,5473
5.926744,6705
5.927747,4305
5.928745,4177
5.929747,5553
5.930746,5601
5.931747,3632
5.932745,4048
5.933745,5761
5.934743,4257
5.935748,3936
5.936747,4545
5.937745,3856
5.938746,3904
5.939745,4048
5.940747,3856
5.941744,4321
5.942742,4817
5.943746,3680
5.944745,4113
5.945744,5345
5.946746,4433
5.947745,4097
5.948747,4993
5.949745,4321
6.108265,10274
6.109223,6721
6.109930,3712
6.110605,4337
6.111282,4000
6.112257,6961
6.112939,7649
6.113606,7329
6.114281,7265
6.114971,5585
6.115642,5313
6.116320,4257
6.117002,3584
6.117676,4145
6.118355,3408
6.119031,3568
6.119711,3392
6.120411,5217
6.121092,5873
6.121772,3680
6.122449,5857
6.123133,3760
6.123825,10290
6.124506,6785
6.125189,5025
6.125872,3904
6.126744,4097
6.127745,4289
6.128743,4145
6.129747,3872
6.130743,5361
6.131746,6913
6.132747,7681
6.133745,5921
6.134746,4032
6.135745,4913
6.136745,6625
6.137746,6353
6.138746,7585
6.139746,8322
6.140746,4401
6.141745,4193
6.142747,3888
6.143745,5841
6.144745,5313
6.145747,4097
6.146744,5057
6.147744,5057
6.148745,4753
6.149746,4161
6.150745,4129
6.151745,4305
6.152745,4048
6.153744,4785
6.154743,4273
6.155743,4737
6.156747,4048
6.157745,8386
6.158743,4161
6.159747,4145
6.160744,4945
6.161745,4113
6.162744,8113
6.163745,18340
6.164745,6817
6.165746,5601
6.166747,5809
6.167745,4353
6.168746,4113
6.169746,7521
6.170745,7553
6.171745,10546
6.172745,8258
6.173745,4401
6.174746,3840
6.175745,7905
6.176762,11650
6.177750,8978
6.178746,5121
6.179746,5841
6.180745,4561
6.181745,5201
6.182745,8049
6.183745,4449
6.184745,11058
6.185745,17156
6.186743,16484
6.187745,5665
6.188744,4129
6.189745,6273
6.190745,6161
6.191745,4321
6.192745,4385
6.193746,5089
6.194745,4945
6.195746,5281
6.196746,5729
6.197745,6305
6.198745,5297
6.199745,7169
6.200744,4177
6.201745,6689
6.202745,5841
6.203745,4417
6.204744,5649
6.205746,4433
6.206745,4177
6.207744,4257
6.208744,4321
6.209746,5553
6.210744,5089
6.211747,7137
6.212745,8418
6.213748,4401
6.214745,6049
6.215747,11474
6.216745,5841
6.217746,18324
6.218745,12579
6.219746,4689
6.220744,4321
6.221744,7105
6.222745,5297
6.223745,6081
6.224744,4241
6.225747,6481
6.226746,12483
6.227745,3888
6.228745,4177
6.229745,4000
6.230746,4289
6.231744,5729
6.232745,4369
6.233747,4833
6.234746,6193
6.235745,7857
6.236747,4737
6.237745,5937
6.238746,5089
6.239745,4481
6.240761,4305
6.241751,4913
6.242744,4785
6.243746,9794
6.244745,11522
6.245746,8450
6.246746,4273
6.247747,4048
6.248747,4817
6.249744,4961
6.250745,6353
6.251746,7265
6.252746,7041
6.253747,7025
6.254745,5441
6.255745,4161
6.256746,6481
6.257743,10578
6.258745,4273
6.259745,8770
6.260745,12066
6.261744,7489
6.262745,6273
6.263744,5585
6.264744,5313
6.265744,4449
6.266745,9474
6.267744,4289
6.268745,13827
6.269746,8866
6.270747,5793
6.271745,11522
6.272746,5265
6.273745,6177
6.274745,4945
6.275744,9298
6.276744,11698
6.277745,8177
6.278746,9650
6.279744,5937
6.280745,10514
6.281746,4417
6.282745,4064
6.283745,4737
6.284745,6081
6.285746,7809
6.286743,7089
6.287744,6433
6.288743,6753
6.289745,10258
6.290745,4433
6.291745,5569
6.292745,7985
6.293746,6545
6.294746,8177
6.295746,6737
6.296745,4865
6.297745,4785
6.298745,9954
6.299745,13395
6.458973,6241
6.459454,5201
6.459732,4513
6.459976,4609
6.460215,4897
6.460471,9266
6.460703,9778
6.460941,8065
6.461177,5697
6.461431,4401
6.461747,4321
6.462746,9106
6.463745,15523
6.464747,22805
6.465743,8113
6.466746,4225
6.467747,5937
6.468744,11778
6.469745,8322
6.470746,4689
6.471744,20709
6.472747,12899
6.473746,17748
6.474745,10370
6.475747,11058
6.476743,5905
6.477746,4913
6.478747,22261
6.479747,14259
6.480745,6049
6.481745,24021
6.482744,6945
6.483745,16932
6.484746,10242
6.485743,10834
6.486746,18356
6.487745,6353
6.488745,7073
6.489747,8001
6.490745,11698
6.491745,4785
6.492744,15171
6.493745,4609
6.494744,16820
6.495745,4705
6.496767,15587
6.497748,10530
6.498746,8962
6.499745,13475
6.500743,11762
6.501746,4929
6.502746,4593
6.503746,4785
6.504744,5697
6.505745,6177
6.506745,6529
6.507745,13811
6.508745,12995
6.509746,11682
6.510746,7969
6.511747,7105
6.512747,28582
6.513745,47755
6.514744,21653
6.515746,12963
6.516745,13027
6.517745,13779
6.518745,6545
6.519745,6305
6.520746,9362
6.521747,16163
6.522745,8386
6.523745,9890
6.524746,9778
6.525746,5249
6.526745,7569
6.527746,10242
6.528747,4769
6.529744,20036
6.530744,19012
6.531747,19428
6.532744,40809
6.533747,5569
6.534744,23093
6.535745,20052
6.536745,8402
6.537745,6241
6.538745,8177
6.539747,12835
6.540745,10450
6.541745,8161
6.542743,5121
6.543747,8786
6.544745,6705
6.545746,5825
6.546746,10898
6.547746,23045
6.548746,16051
6.549745,5137
6.550747,5905
6.551744,21093
6.552745,38249
6.553746,21029
6.554745,10306
6.555744,27542
6.556746,6081
6.557744,11618
6.558747,22117
6.559744,5297
6.560766,5889
6.561750,8322
6.562747,5377
6.563744,5889
6.564746,4513
6.565744,5169
6.566745,6017
6.567745,19668
6.568745,9186
6.569746,7969
6.570746,4417
6.571746,8338
6.572745,4817
6.573745,7729
6.574746,4865
6.575745,5809
6.576745,4801
6.577743,6113
6.578745,8498
6.579745,13315
6.580746,6689
6.581747,8626
6.582745,19860
6.583745,8065
6.584746,34776
6.585745,28310
6.586744,13779
6.587743,8866
6.588745,21173
6.589745,12258
6.590745,21797
6.591747,7201
6.592745,4401
6.593745,12883
6.594746,23013
6.595743,5265
6.596747,6193
6.597747,6673
6.598748,4865
6.599745,4417
6.600746,5057
6.601745,4064
6.602746,4833
6.603745,7313
6.604746,4401
6.605746,9378
6.606744,16179
6.607745,6097
6.608744,5137
6.609745,14739
6.610747,4753
6.611745,8642
6.612745,5217
6.613746,17796
6.614743,16179
6.615745,6801
6.616742,30743
6.617745,5073
6.618745,5121
6.619746,11410
6.620743,8177
6.621744,9698
6.622745,7969
6.623745,7185
6.624764,18052
6.625754,7969
6.626745,17860
6.627745,22565
6.628744,10738
6.629743,16596
6.630746,9362
6.631745,9266
6.632746,9666
6.633746,4945
6.634744,9522
6.635746,9362
6.636745,8914
6.637746,12162
6.638747,10946
6.639746,10722
6.640743,6497
6.641745,4833
6.642745,16468
6.643746,32263
6.644744,5313
6.645745,42826
6.646745,31815
6.647743,6369
6.648744,32824
6.649745,44714
6.650744,19492
6.760984,24854
6.761622,30615
6.762063,25110
6.762459,6753
6.762854,12034
6.763310,23861
6.763698,30663
6.764088,37353
6.764472,48139
6.764878,31239
6.765264,14403
6.765653,11826
6.766047,16900
6.766745,13331
6.767745,20613
6.768744,10018
6.769746,16035
6.770744,14531
6.771745,6017
6.772746,17508
6.773746,13667
6.774746,10098
6.775743,5265
6.776745,7729
6.777745,12979
6.778745,19508
6.779745,4769
6.780743,15779
6.781746,41802
6.782743,13411
6.783747,8129
6.784745,27286
6.785746,11650
6.786743,12435
6.787744,5377
6.788745,5857
6.789746,4961
6.790745,6065
6.791747,21269
6.792744,31015
6.793747,35352
6.794745,13075
6.795745,43546
6.796747,50668
6.797745,41210
6.798745,37385
6.799745,6705
6.800746,8770
6.801747,10130
6.802744,12643
6.803746,6481
6.804746,8866
6.805744,33608
6.806743,11298
6.807747,7249
6.808747,12851
6.809746,8177
6.810743,16804
6.811746,8914
6.812745,6289
6.813744,7825
6.814745,9410
6.815744,5137
6.816766,4225
6.817751,5457
6.818745,13955
6.819744,11986
6.820746,7905
6.821747,5121
6.822744,5329
6.823746,6897
6.824746,8706
6.825744,16067
6.826745,11890
6.827746,5953
6.828745,16516
6.829745,11170
6.830745,4817
6.831746,15667
6.832747,7457
6.833745,5073
6.834745,27526
6.835745,15395
6.836748,10338
6.837745,12547
6.838745,41866
6.839745,7073
6.840744,60014
6.841745,51900
6.842744,11026
6.843747,8914
6.844744,4945
6.845745,7393
6.846745,8866
6.847745,15011
6.848745,11986
6.849745,7425
6.850745,5601
6.851746,14995
6.852745,8834
6.853742,42266
6.854745,27110
6.855746,5441
6.856747,28198
6.857746,39321
6.858746,37241
6.859746,12963
6.860746,16211
6.861744,23989
6.862746,7489
6.863746,13187
6.864747,17828
6.865745,14531
6.866743,5761
6.867745,8290
6.868745,7633
6.869745,18788
6.870744,21573
6.871747,13091
6.872745,15923
6.873744,4881
6.874743,6577
6.875745,11266
6.876744,8626
6.877747,10642
6.878744,5921
6.879746,5169
6.880760,9426
6.881752,27382
6.882744,8177
6.883746,33544
6.884746,37945
6.885745,6097
6.886745,11794
6.887747,6097
6.888746,46139
6.889745,44458
6.890747,7393
6.891746,6865
6.892745,8498
6.893743,22837
6.894746,28967
6.895746,5953
6.896745,14147
6.897743,6449
6.898744,10914
6.899745,8097
6.900745,13395
6.901743,19380
6.902745,6577
6.903745,7345
6.904746,14739
6.905745,25830
6.906745,14131
6.907745,8033
6.908744,11730
6.909747,7697
6.910745,20292
6.911745,23173
6.912746,5921
6.913745,12995
6.914745,23813
6.915745,8194
6.916743,5697
6.917743,21909
6.918744,16532
6.919744,8290
6.920745,9538
6.921745,10946
6.922744,6545
6.923746,10178
6.924745,29959
6.925745,21701
6.926745,15171
6.927747,20340
6.928745,8914
6.929745,5121
6.930745,9490
6.931743,6065
6.932745,7649
6.933745,10258
6.934746,11586
6.935745,19972
6.936745,7825
6.937744,24421
6.938743,32679
6.939746,6865
6.940745,15763
6.941744,17876
6.942747,10386
6.943746,9810
6.944762,11170
6.945753,16484
6.946748,5201
6.947745,13107
6.948745,10578
6.949744,18436
6.950745,7393
6.951745,5025
6.952746,5009
7.105837,5857
7.106628,5073
7.107194,17108
7.107744,33992
7.108283,16916
7.108893,11138
7.109431,32455
7.109972,31111
7.110507,24758
7.111074,19620
7.111613,12851
7.112158,45771
7.112700,14131
7.113244,19380
7.113795,32487
7.114339,44650
7.114892,8177
7.115459,6017
7.116007,4785
7.116748,19220
7.117747,23093
7.118745,27350
7.119743,13779
7.120747,6145
7.121747,5329
7.122744,10514
7.123745,15203
7.124747,5041
7.125747,21349
7.126745,7041
7.127746,20549
7.128744,7649
7.129745,22629
7.130747,46411
7.131746,49548
7.132745,30199
7.133743,22549
7.134745,45451
7.135742,35256
7.136772,13699
7.137752,10562
7.138748,20132
7.139745,7185
7.140746,25238
7.141744,4769
7.142748,24261
7.143745,5345
7.144745,4785
7.145746,17604
7.146745,46891
7.147745,12034
7.148747,33720
7.149746,17732
7.150745,30103
7.151745,38937
7.152744,6289
7.153745,15875
7.154745,15523
7.155745,14563
7.156744,34648
7.157747,14067
7.158745,5729
7.159745,58590
7.160744,40793
7.161745,9474
7.162745,18948
7.163745,10018
7.164744,17268
7.165747,18388
7.166745,4561
7.167746,10290
7.168743,5873
7.169745,9730
7.170743,13139
7.171745,4289
7.172745,8898
7.173743,7313
7.174746,10754
7.175747,7457
7.176743,4016
7.177744,12483
7.178746,46539
7.179745,14419
7.180747,11266
7.181746,16099
7.182745,3888
7.183746,5025
7.184743,5553
7.185744,17876
7.186743,37433
7.187745,5217
7.188745,8386
7.189747,5969
7.190745,30695
7.191745,16708
7.192745,8418
7.193745,3872
7.194746,7105
7.195747,16307
7.196746,7009
7.197745,25670
7.198746,8290
7.199744,4561
7.200763,9026
7.201748,18756
7.202745,8530
7.203745,6657
7.204745,27398
7.205745,4048
7.206745,9154
7.207745,11986
7.208744,25254
7.209744,33176
7.210745,5889
7.211744,15203
7.212745,37337
7.213745,14371
7.214745,18100
7.215744,8001
7.216746,9490
7.217745,22501
7.218743,4801
7.219743,4209
7.220745,5313
7.221745,6753
7.222746,5953
7.223747,8882
7.224743,29207
7.225747,16516
7.226746,20372
7.227744,9138
7.228746,7985
7.229745,21445
7.230744,39641
7.231747,27526
7.232746,9618
7.233747,34376
7.234745,30599
7.235746,9858
7.236744,4353
7.237745,4881
7.238745,4945
7.239745,23765
7.240747,4993
7.241745,16868
7.242744,7393
7.243748,8210
7.244743,32343
7.245747,14099
7.246745,9170
7.247746,18308
7.248746,10130
7.249745,37721
7.250744,5441
7.251747,7585
7.252746,4705
7.253744,10370
7.254745,7617
7.255745,26518
7.256746,17780
7.257744,4193
7.258746,7153
7.259745,24469
7.260745,18772
7.261747,15715
7.262747,5905
7.263744,13555
7.264765,17124
7.265752,21717
7.266747,16836
7.267746,39545
7.268746,26662
7.269744,10978
7.270746,12803
7.271745,7505
7.272746,11986
7.273745,35608
7.274746,52412
7.275745,40537
7.276747,16724
7.277745,27574
7.278743,20837
7.279746,9794
7.280744,8177
7.281745,14547
7.282745,6593
7.283746,4321
7.284745,4193
7.285744,17604
7.286743,40633
7.287747,27222
7.288745,41546
7.289743,40986
7.290745,52924
7.291745,64911
7.292746,44266
7.293745,28150
7.294745,16420
7.295745,13491
7.296746,5281
7.444001,9106
7.444968,16404
7.445681,7441
7.446390,6401
7.447088,12675
7.447861,6321
7.448563,13619
7.449261,11474
7.449962,5377
7.450672,8722
7.451378,9826
7.452084,5665
7.452788,10434
7.453492,40953
7.454202,35016
7.454908,23813
7.455611,8177
7.456512,22085
7.457233,17044
7.457952,6753
7.458659,8081
7.459375,14627
7.460088,16291
7.460800,27270
7.461506,23541
7.462220,18388
7.462935,59550
7.463746,27014
7.464747,21557
7.465745,7201
7.466745,5169
7.467743,44314
7.468745,42474
7.469743,6577
7.470746,12291
7.471745,5633
7.472746,5441
7.473745,12739
7.474744,9618
7.475744,30231
7.476747,35016
7.477746,8626
7.478747,13987
7.479746,18724
7.480745,8210
7.481746,6657
7.482745,18724
7.483745,40217
7.484744,37257
7.485746,33512
7.486745,16452
7.487745,11666
7.488745,24053
7.489744,23605
7.490745,13059
7.491746,54125
7.492745,12547
7.493745,6865
7.494745,7057
7.495745,4097
7.496745,15539
7.497745,7137
7.498747,7105
7.499746,9506
7.500746,22053
7.501747,6225
7.502745,6817
7.503744,15059
7.504744,17972
7.505745,8001
7.506744,8898
7.507744,5585
7.508746,24678
7.509745,5777
7.510747,24774
7.511746,23573
7.512745,26902
7.513746,11010
7.514746,23621
7.515745,37577
7.516743,51292
7.517747,51916
7.518745,5169
7.519746,20517
7.520765,20340
7.521750,17284
7.522748,18180
7.523749,34904
7.524747,4769
7.525746,20869
7.526745,29847
7.527747,44858
7.528747,34664
7.529745,10578
7.530743,46203
7.531744,11602
7.532747,23109
7.533744,30727
7.534745,5729
7.535745,12803
7.536744,16259
7.537743,21589
7.538745,4913
7.539745,9490
7.540744,11058
7.541743,53629
7.542745,28406
7.543745,13923
7.544745,30695
7.545746,9490
7.546746,19524
7.547745,17812
7.548748,7585
7.549746,24565
7.550744,36328
7.551745,7761
7.552746,28486
7.553745,10770
7.554746,6337
7.555745,9570
7.556744,5265
7.557744,4769
7.558744,4257
7.559744,28134
7.560745,6321
7.561746,13875
7.562746,16227
7.563745,9474
7.564744,22533
7.565745,27318
7.566746,19732
7.567744,9554
7.568746,32984
7.569747,32920
7.570745,9954
7.571744,11346
7.572747,6529
7.573746,4097
7.574745,15059
7.575744,8770
7.576748,3808
7.577745,5377
7.578745,5649
7.579745,28662
7.580747,13779
7.581744,4048
7.582746,9698
7.583745,4048
7.584760,33320
7.585751,12979
7.586748,3984
7.587743,13043
7.588747,9714
7.589745,13603
7.590745,12739
7.591746,4577
7.592745,23109
7.593747,33416
7.594745,15011
7.595745,10898
7.596746,3840
7.597747,3920
7.598746,4785
7.599746,12883
7.600744,18516
7.601745,6673
7.602743,19716
7.603747,12819
7.604745,9234
7.605746,6913
7.606747,18948
7.607745,11618
7.608743,8562
7.609746,22021
7.610743,6241
7.621355,5633
7.621580,10914
7.621796,7441
7.622001,5537
7.622214,7041
7.622424,14707
7.622635,29703
7.622855,40409
7.623068,45819
7.623282,49724
7.623747,51388
7.624745,37849
7.625744,4625
7.626746,15939
7.627744,9170
7.628745,8802
7.629746,9794
7.630745,39049
7.631746,8161
7.632744,17332
7.633747,6801
7.634747,6065
7.635746,4048
7.636746,8226
7.637743,11538
7.747464,5521
7.748009,9682
7.748324,6641
7.748606,6865
7.748892,8177
7.749240,5425
7.749514,4289
7.749799,4433
7.750079,4945
7.750378,7905
7.750658,10130
7.750943,11858
7.751746,9090
7.752745,4353
7.753746,4641
7.754745,5153
7.755745,4817
7.756745,6865
7.757745,17988
7.758746,6609
7.759745,5569
7.760746,8145
7.761744,4833
7.762746,27862
7.763746,41610
7.764745,21413
7.765746,26838
7.766746,9394
7.767745,8274
7.768745,25414
7.769747,8306
7.770745,17060
7.771746,17044
7.772747,4881
7.773745,6929
7.774745,8065
7.775744,14243
7.776766,14419
7.777747,37209
7.778745,11906
7.779745,12114
7.780745,16163
7.781745,7121
7.782747,61887
7.783744,51580
7.784745,53036
7.785745,20549
7.786745,8354
7.787745,9106
7.788746,9234
7.789743,19140
7.790744,9794
7.791745,63839
7.792746,24021
7.793745,4449
7.794743,20613
7.795745,13251
7.796744,14387
7.797745,16660
7.798746,16404
7.799746,12371
7.800743,7057
7.801743,12691
7.802747,29863
7.803745,11490
7.804746,4961
7.805747,9346
7.806744,9026
7.807744,5889
7.808745,20116
7.809744,20340
7.810745,36056
7.811742,29735
7.812745,9682
7.813743,16980
7.814744,6369
7.815745,10882
7.816745,15635
7.817747,6881
7.818745,20372
7.819744,15011
7.820747,8049
7.821744,22117
7.822744,39433
7.823746,19892
7.824747,18772
7.825745,17092
7.826747,7889
7.827745,18196
7.828745,15587
7.829747,21045
7.830745,5569
7.831744,24565
7.832745,9650
7.833745,9554
7.834743,6097
7.835744,4945
7.836745,7089
7.837746,17732
7.838745,5393
7.839745,3984
7.840760,8177
7.841750,6017
7.842747,10082
7.843747,16916
7.844748,10594
7.845746,6801
7.846745,25558
7.847744,31031
7.848745,7441
7.849746,4129
7.850744,10210
7.851746,4817
7.852746,4145
7.853745,13699
7.854744,9346
7.855745,5681
7.856746,8081
7.857745,51420
7.858745,23189
7.859747,11170
7.860746,19364
7.861746,25654
7.862745,28999
7.863745,39433
7.864745,9490
7.865745,16211
7.866745,8177
7.867745,6465
7.868745,7297
7.869746,15811
7.870745,4577
7.871745,10290
7.872745,21701
7.873745,30775
7.874746,5025
7.875746,37545
7.876746,8466
7.877745,23397
7.878745,26486
7.879746,11282
7.880745,41498
7.881747,46363
7.882744,29367
7.883745,9378
7.884745,36456
7.885745,23013
7.886745,21749
7.887745,11682
7.888746,33640
7.889744,19812
7.890744,22341
7.891744,18340
7.892746,31239
7.893748,9778
7.894746,20789
7.895747,8177
7.896746,30039
7.897746,6065
7.898745,5521
7.899743,4897
7.900744,31895
7.901745,8642
7.902744,14739
7.903747,4417
7.904754,10082
7.905749,3728
7.906748,19716
7.907747,7441
7.908743,8962
7.909743,5521
7.910746,4625
7.911745,5409
7.912743,13571
7.913745,4897
7.914745,27206
7.915743,10770
7.916745,6065
7.917747,4625
7.918744,36969
7.919747,11090
7.920746,5953
7.921745,4064
7.922745,9218
7.923747,32487
7.924745,5185
7.925745,25446
7.926746,17284
7.927744,24149
7.928746,5057
7.929746,5473
7.930745,5713
7.931745,5825
7.932743,6065
7.933743,6033
7.934744,13203
7.935745,7089
7.936743,26278
7.937745,20244
7.938745,5937
8.098218,27446
8.098924,46555
8.099388,31719
8.099831,31943
8.100260,24517
8.100766,8578
8.101201,12579
8.101638,28598
8.102073,16772
8.102522,5409
8.102960,6433
8.103394,4881
8.103834,7089
8.104272,9570
8.104745,13539
8.105745,7249
8.106745,12803
8.107747,8418
8.108746,7953
8.109746,4833
8.110745,5649
8.111745,51292
8.112744,14819
8.113747,8354
8.114745,9522
8.115746,4785
8.116744,13715
8.117746,26902
8.118746,10514
8.119747,13587
8.120747,13347
8.121744,22117
8.122746,30311
8.123745,33928
8.124745,5169
8.125745,7057
8.126747,11938
8.127747,23557
8.128744,16868
8.129746,16388
8.130746,5265
8.131745,13811
8.132746,22725
8.133745,16708
8.134746,56237
8.135745,47819
8.136744,33352
8.137746,12291
8.138745,6193
8.139745,20404
8.140746,18820
8.141744,8546
8.142745,6225
8.143745,28983
8.144745,9634
8.145745,25158
8.146747,27718
8.147744,19412
8.148745,14131
8.149745,4481
8.150746,4273
8.151747,5553
8.152745,9810
8.153744,7601
8.154745,6097
8.155745,6785
8.156744,21573
8.157748,6657
8.158746,10706
8.159895,30983
8.160750,8994
8.161748,28230
8.162745,12194
8.163745,5761
8.164747,21701
8.165746,12595
8.166746,5297
8.167744,7105
8.168745,10658
8.169744,14403
8.170747,4048
8.171747,26406
8.172744,22869
8.173745,10914
8.174744,11730
8.175744,30119
8.176745,8033
8.177745,19124
8.178746,4737
8.179745,4657
8.180745,10450
8.181746,5425
8.182745,4048
8.183746,4929
8.184744,7393
8.185744,19684
8.186745,9314
8.187747,21781
8.188745,48667
8.189745,4817
8.190747,44010
8.191745,55901
8.192745,28246
8.193746,3968
8.194745,23525
8.195744,4865
8.196744,5457
8.197747,16692
8.198745,17364
8.199745,32311
8.200746,37481
8.201744,13075
8.202745,18084
8.203745,8994
8.204747,8177
8.205745,4513
8.206745,14883
8.207744,22853
8.208747,7889
8.209745,6273
8.210745,20789
8.211747,10722
8.212744,12162
8.213745,9794
8.214745,14787
8.215747,35864
8.216745,26998
8.217745,42138
8.218746,10066
8.219746,27878
8.220746,42058
8.221745,36760
8.222746,26966
8.223746,11474
8.224761,11666
8.225752,18372
8.226745,7889
8.227746,15923
8.228745,15875
8.229746,10594
8.230745,16211
8.231746,11858
8.232744,13107
8.233747,11586
8.234746,54557
8.235746,18468
8.236745,8322
8.237744,12258
8.238745,5809
8.239745,10338
8.240745,6193
8.241745,10402
8.242747,17460
8.243743,11314
8.244745,41434
8.245745,50380
8.246747,19364
8.247745,4513
8.248745,6033
8.249745,18628
8.250746,19108
8.251746,15683
8.252745,8177
8.253745,14659
8.254746,5537
8.255746,8834
8.256745,11234
8.257745,4673
8.258745,4833
8.259745,24133
8.260747,21061
8.261746,21093
8.262745,14947
8.263745,16468
8.264745,6481
8.265746,10114
8.266745,6641
8.267745,7105
8.268746,8145
8.269746,8033
8.270746,12643
8.271745,35272
8.272746,8129
8.273747,11906
8.274746,20677
8.275745,25862
8.276743,12403
8.277746,21781
8.278745,28134
8.279745,17828
8.280745,6081
8.281744,9602
8.282746,9666
8.283743,5729
8.284744,6145
8.285747,6497
8.286745,4641
8.287747,3808
8.288761,9026
8.289748,16708
8.443541,8177
8.444407,5329
8.445037,11186
8.445621,22549
8.446212,45195
8.446873,36744
8.447458,40409
8.448049,19460
8.448634,12291
8.449244,29719
8.449832,15315
8.450422,8498
8.451020,4609
8.451606,4161
8.452201,10002
8.452798,11730
8.453383,28086
8.454001,47435
8.454592,54605
8.455187,20228
8.455783,17748
8.456745,47659
8.457743,60478
8.458746,20052
8.459745,4913
8.460746,8450
8.461745,12483
8.462745,12835
8.463744,8226
8.464745,11250
8.465745,6353
8.466746,4497
8.467745,24005
8.468746,16436
8.469746,4673
8.470744,27606
8.471746,17588
8.472746,18788
8.473748,7425
8.474747,4801
8.475746,4753
8.476743,11922
8.477746,5281
8.478744,5313
8.479745,4113
8.480765,6833
8.481752,17428
8.482748,6385
8.483744,15555
8.484745,10834
8.485745,5681
8.486745,11602
8.487745,24533
8.488746,8722
8.489743,50268
8.490745,14915
8.491747,44522
8.492746,54541
8.493743,19924
8.494746,5969
8.495746,13699
8.496744,7953
8.497746,4897
8.498745,14771
8.499745,10946
8.500746,7985
8.501745,4433
8.502745,6737
8.503745,13027
8.504745,4945
8.505744,11810
8.506745,21717
8.507745,6993
8.508744,7889
8.509745,8898
8.510743,11394
8.511747,4561
8.512746,4961
8.513747,8338
8.514743,6833
8.515745,17284
8.516745,21077
8.517744,29063
8.518745,8898
8.519744,6689
8.520744,65535
8.521745,30279
8.522746,12947
8.523745,6801
8.524746,3872
8.525744,4577
8.526746,10386
8.527745,6753
8.528743,10962
8.529744,6753
8.530746,8017
8.531746,18820
8.532747,17476
8.533746,9650
8.534745,5073
8.535746,9234
8.536743,26902
8.537743,6449
8.538745,21589
8.539744,13283
8.540744,5217
8.541745,10882
8.542746,20565
8.543748,4993
8.544764,4657
8.545748,5649
8.546747,8738
8.547746,4769
8.548746,6929
8.549745,4993
8.550745,20773
8.551744,11810
8.552746,20933
8.553745,24101
8.554745,5073
8.555744,16932
8.556745,24069
8.557745,12723
8.558746,5473
8.559743,25254
8.560746,50876
8.561747,34216
8.562743,7441
8.563748,16772
8.564746,15043
8.565745,4769
8.566745,11122
8.567746,4177
8.568747,5409
8.569745,22469
8.570746,13091
8.571745,8001
8.572746,11986
8.573746,8594
8.574745,22293
8.575745,6737
8.576744,5633
8.577747,13395
8.578745,17380
8.579746,22757
8.580744,22197
8.581746,5137
8.582745,25638
8.583745,31367
8.584746,12291
8.585745,19108
8.586746,7249
8.587745,13059
8.588744,7713
8.589745,4961
8.590746,12355
8.591747,5921
8.592745,9170
8.593746,27574
8.594746,10674
8.595748,23253
8.596745,25782
8.597744,5409
8.598746,34232
8.599746,35816
8.600746,29991
8.601746,5169
8.602745,4273
8.603745,26758
8.604745,11570
8.605748,26902
8.606745,8610
8.607747,22421
8.608761,33944
8.609751,36424
8.610746,4369
8.611746,21077
8.612746,8097
8.613745,5073
8.614746,5169
8.615745,9570
8.616745,12867
8.617746,31495
8.618744,12098
8.619744,4785
8.620745,8177
8.621747,45451
8.622745,32023
8.623745,6593
8.624747,8530
8.625744,7441
8.626745,5601
8.627747,12739
8.628743,8786
8.629745,7809
8.630747,5521
8.631745,20613
8.632745,21077
8.633744,14371
8.634745,6465
8.780639,26294
8.781662,18468
8.782453,19284
8.783211,7969
8.783959,24453
8.784781,25286
8.785527,41642
8.786279,5985
8.787028,4321
8.787797,13475
8.788545,31655
8.789298,4353
8.790051,4545
8.790800,6433
8.791549,10386
8.792298,7841
8.793057,10930
8.793836,21253
8.794592,9042
8.795347,9298
8.796106,12611
8.796865,4705
8.797624,16468
8.798385,7185
8.799147,13379
8.800031,7425
8.800809,4449
8.801571,8258
8.802333,5665
8.803099,7905
8.803860,4993
8.804622,13811
8.805384,9234
8.806189,20212
8.806956,6529
8.807747,11698
8.808743,4929
8.809745,4913
8.810745,5345
8.811745,7905
8.812744,13811
8.813745,5025
8.814747,5537
8.815744,30135
8.816747,14259
8.817744,15363
8.818745,11266
8.819747,6865
8.820746,7745
8.821746,5185
8.822745,9170
8.823745,6337
8.824745,10082
8.825746,5121
8.826745,8065
8.827744,14979
8.828746,5201
8.829745,32904
8.830743,17508
8.831745,7201
8.832746,4945
8.833747,5777
8.834747,15827
8.835746,11090
8.836743,7137
8.846984,18068
8.847209,17380
8.847421,17876
8.847627,23685
8.847847,31159
8.848058,24277
8.848275,16067
8.848490,9458
8.848703,7489
8.848926,6705
8.849745,8418
8.850745,5169
8.851747,35944
8.852744,57229
8.853744,37673
8.854745,5585
8.855747,5905
8.856743,5185
8.857747,39577
8.858745,28246
8.859745,5025
8.860745,5441
8.861745,11826
8.862744,8097
8.863747,4561
8.864763,6001
8.865750,4016
8.866749,4177
8.867747,16388
8.868746,7953
8.869746,11842
8.870745,6865
8.871746,5137
8.872745,7585
8.873746,9938
8.874747,22885
8.875746,20997
8.876745,14403
8.877748,15427
8.878746,25462
8.879745,47851
8.880744,22245
8.881746,8290
8.882746,7505
8.883745,4817
8.884747,8418
8.885743,17908
8.886744,9394
8.887744,4769
8.888746,5665
8.889745,5857
8.890747,32551
8.891744,14291
8.892745,5089
8.893743,10290
8.894744,37321
8.895745,7825
8.896747,5425
8.897746,10306
8.898745,12034
8.899747,29239
8.900745,6113
8.901746,9186
8.902745,13251
8.903746,35128
8.904746,5025
8.905745,5073
8.906747,10658
8.907745,5713
8.908745,5713
8.909747,4513
8.910744,7201
8.911747,4513
8.912745,29607
8.913745,5041
8.914744,6721
8.915747,6369
8.916747,4641
8.917746,5073
8.918743,8786
8.919744,11378
8.920748,9266
8.921746,7425
8.922746,4369
8.923746,5985
8.924744,8802
8.925745,4865
8.926745,5601
8.927746,7313
8.928759,6673
8.929754,7761
8.930746,6881
8.931743,21989
8.932746,30599
8.933745,10578
8.934745,20036
8.935745,4833
8.936746,8001
8.937743,17204
8.938745,27078
8.939745,37641
8.940743,12034
8.941747,4433
8.942745,7585
8.943747,5025
8.944745,6561
8.945744,5137
8.946745,6625
8.947746,5393
8.948746,15379
8.949747,45034
8.950745,21269
8.951745,24389
8.952743,35112
8.953745,14611
8.954745,7281
8.955748,7793
8.956744,4913
8.957744,20020
8.958747,8898
8.959744,6241
8.960745,12018
8.961745,12098
8.962745,4449
8.963746,17348
8.964745,26310
8.965746,18244
8.966746,44842
8.967745,37913
8.968745,12899
8.969745,4545
8.970742,7185
8.971745,20773
8.972745,19380
8.973745,9922
9.086671,4289
9.087288,4929
9.087651,4353
9.088001,6609
9.088337,4593
9.088748,4785
9.089090,4865
9.089426,4321
9.089769,5649
9.090128,4497
9.090466,11042
9.090813,21029
9.091158,18452
9.091745,16644
9.092746,4993
9.093746,5313
9.094745,5025
9.095745,6257
9.096746,5201
9.097747,6417
9.098746,9506
9.099744,8882
9.100743,7425
9.101746,5665
9.102747,20292
9.103746,5249
9.104743,11026
9.105745,21941
9.106746,8658
9.107747,39641
9.108744,11474
9.109745,5185
9.110744,11298
9.111744,5201
9.112747,8354
9.113745,7649
9.114747,29767
9.115745,6881
9.116745,6289
9.117747,25254
9.118748,36937
9.119745,24565
9.120776,23733
9.121752,5473
9.122744,10386
9.123745,4817
9.124745,34152
9.125745,20581
9.126746,5569
9.127743,9698
9.128744,7841
9.129744,4705
9.130743,11522
9.131745,19780
9.132745,37657
9.133747,8177
9.134745,10114
9.135746,5793
9.136746,23445
9.137745,9602
9.138744,5089
9.139747,39049
9.140745,22885
9.141745,18820
9.142746,4593
9.143745,15843
9.144747,15747
9.145747,13235
9.146745,6369
9.147745,7073
9.148745,11282
9.149744,9138
9.150745,4849
9.151742,19908
9.152744,8033
9.153745,8450
9.154745,30663
9.155746,15955
9.156747,10274
9.157742,11682
9.158746,7745
9.159744,15843
9.160746,6449
9.161745,10562
9.162746,4865
9.163745,9554
9.164745,23781
9.165744,18196
9.166745,8786
9.167747,4657
9.168744,4609
9.169746,4625
9.170747,4753
9.171745,5681
9.172744,6417
9.173747,5729
9.174746,13187
9.175744,24245
9.176743,16163
9.177743,8354
9.178745,21045
9.179747,31559
9.180746,11346
9.181745,4689
9.182746,8610
9.183744,17236
9.184764,6753
9.185751,45259
9.186747,23381
9.187746,5057
9.188747,11090
9.189748,26982
9.190748,41706
9.191747,19668
9.192743,4945
9.193747,10114
9.194745,8626
9.195747,4673
9.196745,5137
9.197746,7505
9.198744,16323
9.199744,5425
9.200745,5745
9.201745,5185
9.202745,10626
9.203746,5153
9.204747,4865
9.205745,10786
9.206745,30535
9.207745,14595
9.208745,6577
9.209745,5569
9.210746,10098
9.211744,9986
9.212745,33800
9.213745,19092
9.214743,21189
9.215746,20965
9.216745,37545
9.217746,45755
9.218743,21557
9.219746,25110
9.220745,8882
9.221745,9522
9.222745,16580
9.223744,9858
9.224745,13027
9.225745,4145
9.226744,4881
9.227746,18644
9.228746,20004
9.229745,8177
9.230743,4769
9.231745,9474
9.232743,30503
9.233745,41658
9.234745,20292
9.235745,25430
9.236744,24678
9.237746,8914
9.238744,24678
9.239745,13731
9.240745,31847
9.241744,4513
9.242745,9074
9.243746,9618
9.244745,27670
9.245745,18164
9.246744,14179
9.247747,16468
9.248762,6689
9.249750,18884
9.250747,26902
9.251744,17860
9.252745,7217
9.253744,18244
9.254745,4993
9.255747,11234
9.256746,7617
9.257744,3840
9.258747,21733
9.259745,14355
9.260745,5329
9.261746,10530
9.262745,9410
9.263745,10146
9.264743,7489
9.265745,7249
9.266744,8226
9.267746,11394
9.268747,12819
9.269745,17364
9.270744,9858
9.271746,7569
9.272745,7985
9.273744,4321
9.274745,22229
9.275744,10626
9.276746,6689
9.277745,8065
9.437815,6177
9.438553,12130
9.439080,19716
9.439575,7857
9.440219,5937
9.440807,13715
9.441303,33512
9.441804,18820
9.442301,5649
9.442819,4000
9.443314,6049
9.443813,5473
9.444306,4817
9.444810,8242
9.445308,4785
9.445808,5729
9.446307,8177
9.446832,17684
9.447745,12931
9.448747,39305
9.449745,9042
9.450746,32792
9.451744,18564
9.452744,13107
9.453745,11682
9.454747,5041
9.455745,6625
9.456745,4609
9.457746,5937
9.458746,7985
9.459746,5057
9.460747,5297
9.461744,6769
9.462744,16548
9.463745,7201
9.464745,12803
9.465746,4209
9.466746,6561
9.467746,5409
9.468745,6609
9.469743,11218
9.470745,6321
9.471745,21861
9.472748,18644
9.473744,31751
9.474746,19524
9.475746,37289
9.476745,14931
9.477745,7345
9.478744,12355
9.479745,6945
9.480746,8578
9.481744,10034
9.482747,10722
9.483744,6657
9.484745,10546
9.485747,6337
9.486747,9666
9.487746,14307
9.488746,9618
9.489745,8578
9.490746,7569
9.491745,9090
9.492745,5665
9.493744,24293
9.494747,10018
9.495746,6721
9.496745,4785
9.497745,15427
9.498745,30983
9.499745,14947
9.500745,10434
9.501745,24966
9.502745,7137
9.503745,19652
9.504763,12130
9.505752,5809
9.506748,7233
9.507745,9138
9.508746,14419
9.509743,29479
9.510745,16964
9.511747,4929
9.512745,10322
9.513747,8177
9.514744,9266
9.515747,8450
9.516747,10642
9.517745,6241
9.518745,12499
9.519745,7921
9.520744,8418
9.521745,5009
9.522746,21221
9.523747,18692
9.524745,5969
9.525746,22229
9.526746,11442
9.527744,4945
9.528745,10978
9.529745,15267
9.530745,12467
9.531744,7425
9.532745,7777
9.533746,8258
9.534745,15139
9.535745,16900
9.536744,26646
9.537746,8402
9.538745,37177
9.539745,22565
9.540745,21637
9.541743,9618
9.542745,11602
9.543746,12867
9.544747,8177
9.545745,16067
9.546746,5185
9.547745,7745
9.548745,4881
9.549746,6193
9.550745,6417
9.551744,8498
9.552745,5345
9.553746,7409
9.554747,17636
9.555743,8226
9.556745,4849
9.557744,4737
9.558746,5713
9.559744,8994
9.560747,5121
9.561745,9250
9.562746,5889
9.563746,5185
9.564745,10466
9.565747,8514
9.566747,5217
9.567745,13395
9.568761,6833
9.569751,4929
9.570745,12034
9.571745,7937
9.572745,33928
9.573746,23013
9.574743,9666
9.575743,33016
9.576744,10946
9.577745,14947
9.578745,29063
9.579745,12611
9.580745,5905
9.581745,23973
9.582747,20533
9.583746,8802
9.584744,11250
9.585746,15923
9.586744,7601
9.587748,7441
9.588747,6753
9.589745,5201
9.590743,8242
9.591747,8194
9.592746,4705
9.593745,9122
9.594744,5409
9.595745,25014
9.596744,6929
9.597746,44826
9.598745,13795
9.599745,4641
9.600747,10754
9.601747,6689
9.602745,13475
9.603747,20372
9.604742,11586
9.605747,4817
9.606745,19844
9.607745,10386
9.608745,8402
9.609745,5185
9.610747,5921
9.611746,6097
9.612746,11986
9.613745,10306
9.614746,5041
9.615745,5265
9.616744,5585
9.617745,5857
9.618746,5313
9.619745,4945
9.620745,6161
9.621744,15059
9.622745,12162
9.623745,5953
9.624744,11746
9.625747,7809
9.626742,11858
9.627746,17076
9.628745,6433
9.783027,23397
9.783931,20228
9.784604,8898
9.785252,6705
9.785900,8770
9.786611,17892
9.787264,6961
9.787916,3936
9.788560,4897
9.789229,5633
9.789879,7777
9.790526,7553
9.791176,5393
9.791827,7729
9.792476,6145
9.793130,12451
9.793784,9890
9.794459,5761
9.795116,18260
9.795773,11458
9.796427,19076
9.797082,22341
9.797743,23717
9.798747,37657
9.799745,9234
9.800743,18468
9.801747,6449
9.802745,30647
9.803746,27926
9.804745,11154
9.805744,6929
9.806746,5857
9.807745,6417
9.808747,18932
9.809747,23861
9.810746,13971
9.811743,3936
9.812746,21941
9.813745,25526
9.814745,20757
9.815746,21013
9.816747,24582
9.817745,16660
9.818746,9842
9.819746,8113
9.820747,8001
9.821747,6049
9.822746,5409
9.823747,24678
9.824766,10018
9.825754,9346
9.826747,14307
9.827743,12307
9.828747,13363
9.829743,8866
9.830745,24261
9.831745,20741
9.832743,9314
9.833747,3904
9.834744,5073
9.835745,5713
9.836745,10242
9.837746,13731
9.838745,5393
9.839745,9602
9.840746,4753
9.841745,29207
9.842745,22949
9.843746,5425
9.844746,6753
9.845745,19268
9.846746,30695
9.847746,20020
9.848745,8418
9.849745,10674
9.850746,11714
9.851745,7297
9.852745,4753
9.853745,7809
9.854745,10306
9.855744,13891
9.856746,8242
9.857746,13411
9.858746,16179
9.859745,10050
9.860746,14675
9.861745,20501
9.862746,6305
9.863747,8322
9.864745,7873
9.865746,5393
9.866746,12307
9.867746,6433
9.868746,12675
9.869747,25430
9.870746,4513
9.871744,9106
9.872746,10578
9.873745,3712
9.874744,4032
9.875745,10066
9.876744,11282
9.877746,9362
9.878745,8177
9.879745,15251
9.880745,14403
9.881745,11938
9.882743,10082
9.883745,11202
9.884745,14595
9.885746,14947
9.886745,6209
9.887745,8754
9.888762,34952
9.889747,13587
9.890749,24998
9.891747,16724
9.892745,14083
9.893743,29703
9.894746,33416
9.895745,17732
9.896745,4129
9.897746,8706
9.898746,10530
9.899745,28614
9.900745,14083
9.901745,24245
9.902745,7105
9.903746,14291
9.904745,38281
9.905745,33000
9.906745,5073
9.907746,37209
9.908746,15155
9.909745,4945
9.910745,7729
9.911747,6769
9.912745,4561
9.913747,7409
9.914745,12210
9.915745,11170
9.916745,4289
9.917745,5057
9.918746,5185
9.919743,8530
9.920744,10082
9.921745,9986
9.922747,6433
9.923745,3936
9.924746,9810
9.925746,17188
9.926745,3712
9.927744,4064
9.928745,4241
9.929744,24341
9.930747,9026
9.931745,4689
9.932745,9186
9.933743,8322
9.934747,4369
9.935745,11938
9.936745,5281
9.937746,4241
9.938744,16339
9.939747,20917
9.940742,5441
9.941746,7521
9.942746,7825
9.943746,22149
9.944747,14051
9.945745,6849
9.946747,6465
9.947745,10146
9.948745,8994
9.949743,16564
9.950745,18884
9.951745,20452
9.952756,8786
9.953748,20565
9.954745,7201
9.955743,12162
9.956747,19732
9.957746,17860
9.958745,5809
9.959745,11938
9.960745,6433
9.961745,3888
9.962746,7201
9.963745,16019
9.964745,41050
9.965748,6785
9.966745,11954
9.967745,10162
9.968744,5713
9.969747,13875
9.970745,10754
9.971745,8546
9.972746,5329
9.973744,6385
9.974745,5185
10.090477,28486
10.092553,26278
10.093542,12883
10.094406,14531
10.095232,5345
10.096113,4529
10.096927,27878
10.097737,45291
10.098549,31527
10.099382,18644
10.100192,6305
10.101009,7297
10.101829,14419
10.102642,14595
10.103457,20949
10.104271,15059
10.111608,9538
10.111847,12995
10.112063,12499
10.112280,14899
10.112491,23397
10.112710,31831
10.112924,37193
10.113141,31175
10.113354,22469
10.113567,15459
10.113790,10290
10.114745,10882
10.115745,31671
10.116747,5313
10.117745,49596
10.118745,65535
10.119745,53693
10.120743,4385
10.121746,4369
10.122745,4577
10.123744,18548
10.124744,6865
10.125743,9634
10.126745,4385
10.127743,20485
10.128745,24982
10.129745,9058
10.130745,16548
10.131745,4705
10.132748,5473
10.133745,4689
10.134746,12931
10.135745,12371
10.136744,5201
10.137743,13667
10.138746,7761
10.139745,4129
10.140743,6625
10.141747,12210
10.142745,31799
10.143746,7297
10.144773,14595
10.145752,14531
10.146751,9042
10.147745,3888
10.148745,6673
10.149746,4273
10.150748,3920
10.151746,6241
10.152747,9890
10.153745,5425
10.154745,10706
10.155745,3472
10.156745,10306
10.157743,10690
10.158746,4753
10.159747,11154
10.160744,12002
10.161745,9282
10.162748,8914
10.163745,4257
10.164745,4129
10.165744,7201
10.166744,6817
10.167748,3424
10.168745,23093
10.169745,16211
10.170743,9426
10.171746,8882
10.172746,7297
10.173744,8386
10.174747,4097
10.175745,3856
10.176746,7329
10.177745,14355
10.178745,4064
10.179745,14499
10.180743,10530
10.181746,4225
10.182747,37897
10.183745,45050
10.184746,16612
10.185744,5809
10.186745,9090
10.187745,18692
10.188744,12274
10.189745,7105
10.190747,6481
10.191745,16355
10.192745,12130
10.193742,4945
10.194745,15363
10.195744,12515
10.196745,9490
10.197743,3856
10.198743,6289
10.199745,21125
10.200745,10706
10.201744,11458
10.202744,8594
10.203747,22229
10.204745,47115
10.205745,27366
10.206745,19524
10.207745,10514
10.208760,11666
10.209752,15539
10.210746,6273
10.211746,4865
10.212745,9026
10.213745,13875
10.214745,16420
10.215746,11618
10.216743,5089
10.217745,19092
10.218746,9858
10.219746,5025
10.220745,6353
10.221746,3968
10.222744,12691
10.223747,8962
10.224746,3776
10.225745,12419
10.226745,30887
10.227746,22677
10.228745,9826
10.229746,24678
10.230746,8898
10.231745,10322
10.232745,35768
10.233745,8322
10.234747,7505
10.235745,3760
10.236746,6465
10.237745,5329
10.238744,25350
10.239745,22069
10.240745,5777
10.241747,6113
10.242745,6897
10.243745,10866
10.244745,27782
10.245745,7073
10.246746,7617
10.247747,6337
10.248746,3840
10.249744,7457
10.250745,18516
10.251745,30807
10.252745,7537
10.253744,4497
10.254745,5329
10.255745,29879
10.256747,27478
10.257745,3680
10.258745,16019
10.259746,25046
10.260745,3728
10.261746,4417
10.262746,8930
10.263744,4817
10.264744,6193
10.265745,8194
10.266744,5649
10.267746,11954
10.268745,4161
10.269745,7681
10.270746,8994
10.271745,9186
10.272761,5969
10.273752,4785
10.274746,31767
10.275748,12899
10.276744,9986
10.277744,7761
10.278745,6913
10.279745,5569
10.280746,17428
10.281744,16484
10.282745,5441
10.283746,24982
10.284746,18564
10.285746,18756
10.286743,16147
10.444905,6849
10.445525,4353
10.445940,4225
10.446322,6609
10.446692,5217
10.447140,7457
10.447516,8850
10.447895,8578
10.448271,6593
10.448664,6977
10.449045,8546
10.449423,7777
10.449805,5425
10.450183,4673
10.450746,4273
10.451743,4080
10.452744,3712
10.453747,3856
10.454745,4257
10.455745,4769
10.456746,3968
10.457745,5953
10.458744,4497
10.459743,9090
10.460745,8194
10.461743,6753
10.462745,4129
10.463746,8129
10.464769,4305
10.465750,5089
10.466746,4673
10.467745,4673
10.468746,4625
10.469747,4897
10.470747,8145
10.471745,7937
10.472746,5809
10.473745,4769
10.474745,5809
10.475746,4545
10.476746,3648
10.477746,4016
10.478744,4016
10.479745,5361
10.480746,8033
10.481745,7313
10.482746,6753
10.483747,8113
10.484745,5681
10.485745,3984
10.486748,3840
10.487744,6065
10.488746,6049
10.489747,4289
10.490747,7393
10.491745,7569
10.492745,4833
10.493746,4753
10.494744,6433
10.495746,10770
10.496747,12963
10.497746,6305
10.498742,8177
10.499747,4785
10.500747,6545
10.501746,4321
10.502745,6433
10.503744,4609
10.504743,4577
10.505745,5377
10.506746,3936
10.507746,5457
10.508746,5441
10.509745,6289
10.510746,4689
10.511743,7713
10.512746,8242
10.513744,4129
10.514746,14547
10.515745,13363
10.516748,6289
10.517745,5473
10.518745,6721
10.519746,4097
10.520746,4225
10.521744,4353
10.522743,4161
10.523748,5281
10.524746,10786
10.525745,5185
10.526746,3616
10.527745,9186
10.528762,4577
10.529749,15955
10.530744,7457
10.531747,4561
10.532747,4497
10.533747,5841
10.534746,3984
10.535745,3904
10.536745,4689
10.537746,4769
10.538746,7681
10.539745,3984
10.540745,6753
10.541745,4465
10.542743,4833
10.543746,5041
10.544747,5105
10.545745,4641
10.546746,9682
10.547745,6577
10.548746,5553
10.549743,4177
10.550744,5169
10.551745,3920
10.552744,4241
10.553745,4705
10.554745,4401
10.555745,5665
10.556746,4097
10.557746,5025
10.558746,4977
10.559745,5377
10.560745,7873
10.561747,4369
10.562745,4032
10.563745,3968
10.564744,6193
10.565746,5793
10.566745,3904
10.567746,4609
10.568745,3920
10.569745,5169
10.570745,8210
10.571743,7905
10.572746,5441
10.573745,4993
10.574743,4865
10.575745,5553
10.576745,3968
10.577746,6321
10.578747,5025
10.579744,4305
10.580746,3664
10.581744,4000
10.582745,4433
10.583745,4641
10.584745,4529
10.585744,6385
10.586747,6145
10.587745,4032
10.588744,4641
10.589745,4625
10.590743,3648
10.591746,6353
10.592759,6817
10.593750,4401
10.594745,3744
10.595747,5329
10.596745,5249
10.597745,4481
10.598746,5537
10.599745,4785
10.600746,4753
10.601745,6593
10.602746,6641
10.603743,5585
10.604746,4097
10.605745,6321
10.606744,4401
10.607746,7873
10.608745,6049
10.609747,4545
10.610746,4000
10.611743,4785
10.612746,4753
10.613745,4273
10.614743,5777
10.615747,4145
10.616745,4097
10.617743,5777
10.618747,5025
10.619746,5313
10.620747,4193
10.621745,5009
10.622747,3888
10.623744,8194
10.624745,5537
10.625743,5121
10.626746,4737
10.627746,3920
10.628746,4353
10.629744,5089
10.630744,4625
10.631746,3984
10.632747,3872
10.633745,5153
10.634744,7233
10.635745,6033
10.841370,3712
10.842161,4929
10.842714,5841
10.843248,4064
10.843775,7697
10.844368,5825
10.844897,3632
10.845424,3984
10.845951,8017
10.846499,7393
10.847030,6465
10.847563,5857
10.848094,4577
10.848776,3840
10.849337,4865
10.849881,4545
10.850418,5137
10.850978,5265
10.851745,4193
10.852744,4145
10.853745,4064
10.854746,3920
10.855745,3728
10.856745,6737
10.857745,6673
10.858745,6065
10.859744,4080
10.860744,4913
10.861746,4385
10.862745,4097
10.863746,3856
10.864745,4129
10.865745,5617
10.866744,5089
10.867743,4145
10.868745,5361
10.869743,6961
10.870746,5633
10.871745,5361
10.872743,3744
10.873744,4641
10.874747,4048
10.875745,4193
10.876745,4321
10.877745,4385
10.878745,4705
10.879746,5969
10.880747,4529
10.881745,5089
10.882744,5265
10.883744,3856
10.884745,4129
10.885745,4225
10.886747,3424
10.887746,4161
10.888745,4097
10.889746,4929
10.890747,4385
10.891743,4193
10.892747,3888
10.893743,3920
10.894745,6689
10.895746,3856
10.896745,6337
10.897745,4817
10.898744,4193
10.899743,4016
10.900744,3904
10.901746,3856
10.902745,4417
10.903746,4145
10.904743,4929
10.905746,4145
10.906745,5441
10.907744,4657
10.908745,7873
10.909747,6065
10.910747,5201
10.911773,5377
10.912751,3632
10.913749,4048
10.914744,4449
10.915744,4401
10.916746,4241
10.917745,3824
10.918745,6177
10.919744,4209
10.920746,4305
10.921743,4449
10.922746,4064
10.923745,4449
10.924745,5409
10.925745,4641
10.926745,4016
10.927747,4465
10.928745,5409
10.929746,4993
10.930745,4161
10.931743,4545
10.932745,4113
10.933746,4353
10.934745,4337
10.935746,4193
10.936745,4048
10.937744,4561
10.938744,4241
10.939744,5489
10.940746,3856
10.941747,4817
10.942746,3776
10.943744,5217
10.944745,6753
10.945746,3920
10.946747,4000
10.947745,4897
10.948745,5457
10.949746,4129
10.950747,4145
10.951746,4353
10.952744,5569
10.953745,6049
10.954747,5457
10.955747,4257
10.956746,4097
10.957743,4353
10.958748,3968
10.959744,5777
10.960746,5985
10.961746,3760
10.962745,4097
10.963745,4513
10.964744,4369
10.965746,5697
10.966746,4161
10.967745,3808
10.968745,6305
10.969746,5297
10.970745,4625
10.971745,4865
10.972745,3904
10.973745,3776
10.974746,5025
10.975787,5697
10.976752,5969
10.977750,4657
10.978748,4401
10.979743,4161
10.980747,4641
10.981746,5281
10.982743,5201
10.983745,4369
10.984745,5985
10.985747,5697
10.986744,4032
10.987745,4193
10.988746,4241
10.989745,4401
10.990745,4401
10.991745,7281
10.992745,3904
10.993746,3968
10.994745,5985
10.995745,6321
10.996745,3952
10.997744,4673
10.998748,5057
10.999745,3936
11.000744,4064
11.001746,5153
11.002744,4097
11.003747,4016
11.004747,4849
11.005745,5153
11.006746,5297
11.007745,4449
11.008748,4225
11.009745,5329
11.010745,3968
11.011748,4417
11.012744,6721
11.013746,4657
11.014745,3728
11.015745,3680
11.016746,4129
11.017745,4385
11.018746,4016
11.019746,5441
11.020746,6337
11.021747,4913
11.022745,5857
11.023743,4369
11.024747,6145
11.025745,5777
11.026743,4177
11.027745,4369
11.028747,3936
11.029745,5473
11.030745,5457
11.031744,4497
11.032745,3888
11.179428,5233
11.180367,4385
11.181090,4561
11.181783,3872
11.182470,4048
11.183226,4145
11.183909,5857
11.184585,5281
11.185265,5073
11.185970,4481
11.186652,6417
11.187335,7953
11.188016,4209
11.188700,4080
11.189385,5521
11.190072,4817
11.190760,6593
11.191467,4753
11.192156,3872
11.192848,4369
11.193537,3552
11.194230,4353
11.194921,4545
11.195609,6433
11.196299,4225
11.196991,4353
11.197747,5169
11.198743,6369
11.199745,4353
11.200745,4369
11.201745,4241
11.202747,4497
11.203746,4321
11.204745,5329
11.205746,6689
11.206746,5713
11.207745,5745
11.208745,4577
11.209746,6321
11.210742,5361
11.211747,3984
11.212746,4625
11.213747,4337
11.214747,4193
11.215745,4385
11.216745,6945
11.217746,5601
11.218744,6993
11.219744,4289
11.220745,4385
11.221745,4785
11.222746,4097
11.223747,4016
11.224746,5057
11.225745,4641
11.226745,4097
11.227745,4016
11.228746,4273
11.229746,4305
11.230746,4129
11.231745,4641
11.232769,4801
11.233751,4016
11.234747,4097
11.235746,4273
11.236744,4609
11.237747,5457
11.238744,3840
11.239746,3984
11.240746,4193
11.241744,5505
11.242745,4897
11.243745,4673
11.244745,4000
11.245746,4529
11.246746,3872
11.247745,4048
11.248747,5425
11.249747,4145
11.250745,4064
11.251745,3920
11.252746,4145
11.253747,3728
11.254744,4385
11.255746,5025
11.256744,6033
11.257745,5297
11.258746,4225
11.259744,5953
11.260744,5185
11.261745,4353
11.262746,4385
11.263746,5217
11.264743,4561
11.265745,4321
11.266746,4673
11.267745,4577
11.268745,4289
11.269744,4401
11.270746,4385
11.271745,4080
11.272744,4433
11.273745,5185
11.274745,5025
11.275747,5329
11.276745,5505
11.277743,5649
11.278745,4289
11.279743,4385
11.280746,3872
11.281746,4641
11.282746,4529
11.283746,4353
11.284745,4865
11.285746,4993
11.286745,4129
11.287746,3792
11.288745,4657
11.289744,4737
11.290745,4657
11.291744,5025
11.292747,4369
11.293747,4161
11.294745,4961
11.295767,4545
11.296749,6049
11.297745,6193
11.298747,5265
11.299747,4273
11.300744,4129
11.301745,3744
11.302744,4689
11.303746,6001
11.304745,5409
11.305744,4369
11.306746,4801
11.307745,4369
11.308744,4577
11.309745,4353
11.310744,6545
11.311744,4177
11.312743,4945
11.313747,4385
11.314744,6177
11.315746,4737
11.316745,4161
11.317746,4785
11.318746,4417
11.319746,4064
11.320744,5137
11.321745,4737
11.322746,4321
11.323745,5345
11.324744,4929
11.325747,3920
11.326743,4881
11.327746,4705
11.328743,4673
11.329744,4273
11.330744,4417
11.331747,4241
11.332744,7361
11.333744,4497
11.334744,5089
11.335745,5809
11.336745,4097
11.337746,5793
11.338744,4321
11.339745,4145
11.340745,4385
11.341747,4113
11.342745,4289
11.343745,4497
11.344745,4257
11.345743,6849
11.346745,4561
11.347747,4080
11.348745,4321
11.349746,5265
11.350746,4945
11.351745,6209
11.352744,5377
11.353746,6545
11.354746,5649
11.355746,4481
11.356744,4625
11.357746,4753
11.358746,4433
11.359797,4577
11.360750,4353
11.361748,4113
11.362747,4289
11.363746,3920
11.364747,4481
11.365746,4689
11.366747,4289
11.367745,6161
11.368745,4161
11.369745,5521
11.370745,4545
11.487946,4705
11.488454,4097
11.488734,3904
11.488980,3712
11.489223,4129
11.489490,4929
11.489735,5889
11.489977,7217
11.490221,6945
11.490475,5825
11.490722,5281
11.490968,5345
11.491744,4305
11.492744,4961
11.493745,3968
11.494746,3936
11.495744,4561
11.496747,5265
11.497747,7729
11.498745,5121
11.499745,4417
11.500745,5009
11.501746,4080
11.502746,5985
11.503747,5793
11.504746,8898
11.505745,4657
11.506745,4513
11.507746,5521
11.508745,4993
11.509747,4817
11.510747,4129
11.511747,5185
11.512744,4737
11.513745,5201
11.514745,4417
11.515746,4273
11.516744,5905
11.517743,5521
11.518746,4737
11.519746,5041
11.520745,4961
11.521745,4417
11.522745,4048
11.523745,4129
11.524745,4625
11.525747,5169
11.526745,6193
11.527747,4961
11.528743,4401
11.529747,4016
11.530743,4753
11.531746,4577
11.532745,4241
11.533745,4064
11.534745,5841
11.535743,5249
11.536746,4145
11.537745,5249
11.538746,4961
11.539746,4961
11.540745,4817
11.541744,4449
11.542745,4064
11.543744,4577
11.544745,4673
11.545745,5073
11.546745,4641
11.547744,7265
11.548745,4241
11.549746,5505
11.550745,4289
11.551744,5745
11.552761,4561
11.553749,3968
11.554745,5329
11.555748,4673
11.556746,5009
11.557746,5249
11.558747,4032
11.559746,3904
11.560747,5073
11.561745,4593
11.562746,4449
11.563744,5681
11.564745,6753
11.565744,6417
11.566748,6161
11.567746,5345
11.568745,4481
11.569746,5297
11.570746,4769
11.571745,3984
11.572747,5921
11.573744,4961
11.574744,4177
11.575747,4945
11.576746,5793
11.577745,4753
11.578744,6337
11.579746,7201
11.580744,5793
11.581745,4865
11.582744,4673
11.583745,4865
11.584746,4241
11.585746,4705
11.586745,4705
11.587745,4497
11.588745,4689
11.589745,4929
11.590745,4337
11.591744,4529
11.592745,4369
11.593745,6833
11.594745,5921
11.595743,4625
11.596745,4385
11.597747,5345
11.598745,5249
11.599745,4353
11.600745,4257
11.601745,5025
11.602745,4449
11.603744,4801
11.604745,5409
11.605745,4529
11.606743,4353
11.607746,4289
11.608744,5457
11.609745,5345
11.610743,4897
11.611745,4513
11.612746,5217
11.613745,4609
11.614744,4561
11.615747,4064
11.616764,5201
11.617752,3872
11.618746,4545
11.619744,5425
11.620747,5057
11.621744,5297
11.622745,4321
11.623745,4689
11.624746,6225
11.625743,4241
11.626744,5361
11.627744,6849
11.628746,5089
11.629744,5169
11.630745,5969
11.631745,5201
11.632748,5345
11.633744,4961
11.634746,4369
11.635745,4673
11.636745,4449
11.637745,4064
11.638745,4929
11.639746,4417
11.640745,4401
11.641745,6545
11.642745,5777
11.643747,4000
11.644746,4433
11.645745,4561
11.646746,4497
11.647747,5377
11.648747,4625
11.649745,4064
11.650745,4193
11.651745,4689
11.652747,4032
11.653746,5025
11.654745,4401
11.655745,4769
11.656745,4353
11.657747,7553
11.658743,6865
11.659745,5697
11.660745,5217
11.661746,4177
11.662746,4769
11.663744,4593
11.664745,4289
11.665745,5025
11.666743,5041
11.667747,4849
11.668743,4817
11.669747,4321
11.670746,6561
11.671744,5857
11.672746,5201
11.673743,3616
11.674744,5601
11.675745,5553
11.676746,5905
11.677747,5345
11.678747,4193
11.838877,4305
11.839518,3280
11.839952,4032
11.840359,3488
11.840755,4721
11.841218,6945
11.841611,5793
11.842014,4673
11.842405,3888
11.842821,4305
11.843215,3568
11.843608,3728
11.844011,4481
11.844410,4000
11.844816,4673
11.845745,5185
11.846745,4657
11.847745,4433
11.848746,5121
11.849744,3360
11.850745,4273
11.851745,4273
11.852747,5409
11.853744,5073
11.854745,4545
11.855746,4753
11.856744,6081
11.857745,4993
11.858747,4625
11.859746,4881
11.860746,4481
11.861745,5089
11.862746,5153
11.863746,4577
11.864744,5793
11.865745,4321
11.866746,4769
11.867746,4865
11.868744,5185
11.869745,5041
11.870747,4064
11.871743,4481
11.872768,4961
11.873750,5137
11.874747,4641
11.875744,4545
11.876745,5041
11.877745,4865
11.878746,4609
11.879743,4481
11.880745,4689
11.881746,5601
11.882745,4657
11.883745,4417
11.884744,5057
11.885745,5009
11.886745,4657
11.887744,5041
11.888747,6289
11.889746,5265
11.890745,4913
11.891745,4449
11.892744,6849
11.893745,5841
11.894744,5025
11.895744,6369
11.896746,5729
11.897745,3856
11.898744,5041
11.899747,4513
11.900746,4513
11.901747,4737
11.902745,4689
11.903746,4641
11.904745,5057
11.905745,4433
11.906744,6273
11.907745,4897
11.908745,4417
11.909746,4689
11.910747,4305
11.911745,7217
11.912744,5265
11.913744,3232
11.914747,5793
11.915745,5553
11.916745,5121
11.917746,5681
11.918744,5025
11.919745,4609
11.920745,4721
11.921745,4417
11.922745,4497
11.923746,5025
11.924747,4865
11.925744,4609
11.926745,4225
11.927745,5425
11.928745,5073
11.929745,4257
11.930744,5041
11.931744,4881
11.932745,4737
11.933745,5041
11.934747,5409
11.935747,5553
11.936763,3520
11.937750,5041
11.938745,5009
11.939744,4513
11.940747,4513
11.941745,5249
11.942745,5089
11.943747,4481
11.944747,4113
11.945745,3280
11.946746,4657
11.947746,5505
11.948744,4705
11.949745,4177
11.950745,5841
11.951745,6369
11.952745,6321
11.953745,5857
11.954745,4625
11.955745,4753
11.956748,4481
11.957746,5921
11.958743,4449
11.959745,4641
11.960745,4913
11.961745,3808
11.962745,4401
11.963745,4769
11.964747,6049
11.965745,4561
11.966745,4097
11.967745,4305
11.968746,4657
11.969744,4433
11.970743,4769
11.971746,5201
11.972744,4689
11.973746,5201
11.974746,4401
11.975745,6481
11.976745,4241
11.977745,4657
11.978746,4945
11.979744,4769
11.980745,5777
11.981745,5137
11.982745,5425
11.983742,4353
11.984746,5409
11.985746,5377
11.986747,4705
11.987743,4609
11.988746,4433
11.989745,4609
11.990745,4785
11.991747,7521
11.992748,6993
11.993745,3232
11.994745,4577
11.995745,5441
11.996745,4097
11.997745,4609
11.998745,5121
11.999745,4945
12.000757,5585
12.001747,5169
12.002745,5409
12.003745,4737
12.004746,4513
12.005745,5089
12.006748,4321
12.007746,4913
12.008745,5937
12.009747,4561
12.010745,4353
12.011745,4641
12.012745,4385
12.013744,5329
12.014746,6465
12.015745,5249
12.016744,4593
12.017745,4593
12.018746,4497
12.019743,4993
12.020745,4497
12.021746,4657
12.022746,5105
12.023746,5073
12.024746,5217
12.025745,4705
12.026745,6321
12.027746,5249
12.028746,4481
12.029747,4561
12.186402,5457
12.187224,5201
12.187813,4032
12.188362,3680
12.188914,3520
12.189523,4641
12.190071,5425
12.190615,4161
12.191163,3536
12.191740,3456
12.192287,3856
12.192974,5201
12.193538,4289
12.194099,5377
12.194649,5057
12.195203,4481
12.195753,4673
12.196326,4129
12.196883,3856
12.197744,4513
12.198745,4913
12.199746,4465
12.200747,4369
12.201745,3376
12.202745,5713
12.203745,5249
12.204748,4609
12.205745,4241
12.206745,4193
12.207747,8177
12.208745,4657
12.209745,5201
12.210745,4401
12.211744,4417
12.212745,4177
12.213745,5073
12.214746,4369
12.215747,4497
12.216743,3712
12.217744,3920
12.218746,4385
12.219746,4113
12.220743,6753
12.221744,6657
12.222745,4401
12.223745,5441
12.224745,4225
12.225745,6209
12.226744,4913
12.227745,4513
12.228744,5761
12.229744,5073
12.230746,5441
12.231745,4225
12.232747,4241
12.233745,5713
12.234743,3824
12.235745,4561
12.236744,3856
12.237747,6673
12.238745,4113
12.239746,4289
12.240745,5089
12.241745,5377
12.242747,4529
12.243745,4689
12.244746,4481
12.245744,5809
12.246746,5441
12.247747,4705
12.248745,4177
12.249745,3296
12.250744,4193
12.251745,4273
12.252743,4577
12.253746,5009
12.254745,4241
12.255745,4497
12.256764,4417
12.257747,4289
12.258747,4561
12.259745,5073
12.260744,4032
12.261744,3456
12.262743,3504
12.263746,5201
12.264745,4225
12.265745,3712
12.266747,4385
12.267746,4705
12.268745,4785
12.269747,4433
12.270746,4849
12.271748,5201
12.272745,3872
12.273745,4545
12.274746,5905
12.275745,3408
12.276745,3936
12.277745,5633
12.278745,5537
12.279746,4561
12.280746,4961
12.281746,3616
12.282745,4016
12.283746,5729
12.284746,5825
12.285744,4449
12.286743,4321
12.287744,3648
12.288745,4257
12.289745,5473
12.290746,4577
12.291745,4417
12.292747,5153
12.293744,3424
12.294747,4465
12.295747,4257
12.296745,4080
12.297746,5457
12.298745,4241
12.299745,3776
12.300746,4241
12.301745,4113
12.302745,4401
12.303745,3728
12.304745,4449
12.305747,4257
12.306746,6801
12.307747,5313
12.308747,4625
12.309745,4529
12.310744,4641
12.311744,3472
12.312746,4177
12.313745,3776
12.314745,4641
12.315746,5025
12.316745,4865
12.317744,5937
12.318744,4289
12.319745,3888
12.320764,5649
12.321751,5265
12.322749,6545
12.323745,6145
12.324745,4625
12.325744,3552
12.326746,4385
12.327745,4289
12.328743,3488
12.329744,3680
12.330747,4449
12.331747,5969
12.332747,5505
12.333746,4161
12.334745,3344
12.335746,4305
12.336744,3376
12.337744,3296
12.338745,6225
12.339744,5921
12.340747,4593
12.341746,4305
12.342746,5249
12.343747,4273
12.344746,4225
12.345746,4273
12.346744,5377
12.347745,4641
12.348747,4545
12.349745,5153
12.350746,4337
12.351745,5025
12.352745,4113
12.353748,4481
12.354744,3472
12.355746,6161
12.356747,5393
12.357747,4353
12.358745,3408
12.359747,4273
12.360747,4961
12.361748,3216
12.362745,4929
12.363746,5601
12.364744,4145
12.365745,5393
12.366746,3872
12.367747,4513
12.368744,6401
12.369745,5313
12.370743,4561
12.371745,4529
12.372745,4145
12.373745,4000
12.374745,4289
12.375745,3584
12.376745,3888
12.377746,3392
12.488776,4801
12.489730,4833
12.490463,4529
12.491169,3808
12.491879,2864
12.492658,4145
12.493364,4032
12.494071,3568
12.494784,5329
12.495507,6273
12.496220,3920
12.496935,3888
12.497647,3968
12.498360,3792
12.499075,4593
12.499789,3968
12.500497,5953
12.501237,4801
12.501953,4657
12.502664,3712
12.503389,3952
12.504108,5121
12.504828,4321
12.505549,4321
12.506273,4657
12.506994,5393
12.507722,3824
12.508440,3808
12.509167,4337
12.509894,7425
12.510745,4289
12.511745,3760
12.512766,5841
12.513751,4513
12.514747,3984
12.515745,4577
12.516746,4833
12.517744,4961
12.518744,3376
12.519747,3536
12.520746,3888
12.521746,4625
12.522744,3168
12.523745,4097
12.524746,4000
12.525743,4897
12.526745,3424
12.527745,3344
12.528745,3360
12.529745,4225
12.530745,4641
12.531745,3808
12.532747,4129
12.533746,4881
12.534745,5953
12.535745,4097
12.536745,3520
12.537745,3536
12.538744,4705
12.539745,3328
12.540744,3200
12.541745,3440
12.542747,3872
12.543744,4241
12.544746,4449
12.545746,4257
12.546744,4080
12.547745,3680
12.548747,4641
12.549745,5969
12.550744,3792
12.551746,4369
12.552745,3648
12.553745,5025
12.554746,4097
12.555743,4529
12.556745,3808
12.557743,3872
12.558743,3824
12.559744,4401
12.560743,4177
12.561743,5073
12.562747,3568
12.563745,4705
12.564744,6481
12.565745,6065
12.566745,3344
12.567745,5281
12.568745,5313
12.569743,4273
12.570745,3744
12.571745,3456
12.572744,4481
12.573745,4961
12.574743,4257
12.575745,3872
12.576757,4305
12.577751,4449
12.578746,3392
12.579744,3392
12.580746,3712
12.581746,3776
12.582744,4657
12.583745,3648
12.584746,3264
12.585747,5521
12.586745,3424
12.587746,4689
12.588745,4961
12.589744,3488
12.590744,3136
12.591744,4705
12.592747,4961
12.593743,5153
12.594746,3248
12.595744,4417
12.596747,4161
12.597747,4241
12.598745,3744
12.599748,4129
12.600747,3904
12.601746,4401
12.602746,4048
12.603746,3200
12.604747,4705
12.605746,3792
12.606745,4000
12.607744,3552
12.608746,5665
12.609745,4321
12.610746,3440
12.611744,3712
12.612746,3504
12.613745,3040
12.614743,3856
12.615745,4097
12.616745,4705
12.617746,4064
12.618745,4016
12.619747,3984
12.620743,3424
12.621748,4385
12.622747,4000
12.623745,3600
12.624746,3584
12.625745,3728
12.626743,5137
12.627743,4689
12.628745,4513
12.629747,4321
12.630743,4609
12.631745,3712
12.632745,3728
12.633747,3264
12.634745,3392
12.635746,5345
12.636745,5153
12.637745,3664
12.638745,5633
12.639746,3648
12.640763,4145
12.641750,4609
12.642749,5473
12.643747,4497
12.654349,4577
12.654579,4545
12.654806,4321
12.655018,3472
12.655228,4897
12.655438,5377
12.655650,6881
12.655865,7377
12.656082,6433
12.656301,5921
12.656746,3968
12.657745,4321
12.658746,3216
12.659745,4257
12.660744,3936
12.661747,5809
12.662744,3248
12.663745,3344
12.664746,3712
12.665744,4881
12.666745,4497
12.667745,3392
12.668744,4433
12.669746,3408
12.670746,5345
12.671746,5393
12.672746,4080
12.673747,4305
12.674747,3120
12.675745,3104
12.676743,4657
12.677747,4609
12.678746,3792
12.679748,3072
12.680745,5681
12.681745,4385
12.844936,3264
12.845468,3808
12.845800,3648
12.846097,3744
12.846382,4385
12.846742,4369
12.847030,5345
12.847317,4721
12.847608,4657
12.847923,4881
12.848209,4048
12.848746,3680
12.849746,4289
12.850744,4673
12.851745,4417
12.852746,3792
12.853747,3216
12.854747,3328
12.855745,3200
12.856746,5217
12.857745,4689
12.858745,3664
12.859747,4449
12.860745,6049
12.861744,4080
12.862744,3776
12.863744,4337
12.864744,3584
12.865748,3488
12.866745,3904
12.867744,3424
12.868745,5329
12.869743,5089
12.870744,4000
12.871745,4673
12.872744,3536
12.873744,3792
12.874745,3776
12.875746,3376
12.876748,4305
12.877746,4641
12.878745,4561
12.879746,6417
12.880745,4401
12.881745,3328
12.882746,3680
12.883745,6241
12.884745,4032
12.885744,4305
12.886744,6065
12.887745,4369
12.888745,3568
12.889746,3904
12.890743,3456
12.891743,3632
12.892745,3808
12.893743,5041
12.894746,3408
12.895745,4241
12.896764,4016
12.897747,3472
12.898745,4129
12.899743,4113
12.900746,4193
12.901747,5025
12.902745,4097
12.903744,3712
12.904746,5505
12.905745,4865
12.906744,3632
12.907746,4193
12.908747,4609
12.909743,4305
12.910746,3792
12.911745,3216
12.912746,3920
12.913746,4817
12.914746,3408
12.915746,4321
12.916745,4113
12.917746,5681
12.918745,4753
12.919747,3296
12.920747,3696
12.921744,4529
12.922745,3920
12.923744,4289
12.924745,3680
12.925745,4833
12.926746,4177
12.927745,4385
12.928745,4241
12.929746,3264
12.930747,3712
12.931745,5697
12.932745,4177
12.933746,3776
12.934745,3632
12.935746,5649
12.936743,4641
12.937745,3776
12.938747,3360
12.939746,3472
12.940746,5313
12.941744,4016
12.942743,3760
12.943745,3904
12.944744,3840
12.945744,3968
12.946745,4913
12.947747,4577
12.948747,3600
12.949745,7313
12.950746,4193
12.951745,3776
12.952745,5553
12.953746,3760
12.954746,3296
12.955744,4497
12.956746,4080
12.957744,3760
12.958746,5233
12.959745,4369
12.960761,4209
12.961751,4000
12.962746,4161
12.963746,5009
12.964743,3584
12.965745,4032
12.966745,3248
12.967747,4705
12.968745,4353
12.969746,4321
12.970745,3728
12.971747,3888
12.972747,3584
12.973745,3376
12.974743,3248
12.975744,3552
12.976741,4129
12.977745,3680
12.978746,3664
12.979743,4577
12.980746,5249
12.981747,5041
12.982746,4353
12.983745,5041
12.984744,4609
12.985745,3872
12.986747,3520
12.987745,3648
12.988746,3856
12.989745,5025
12.990744,3792
12.991747,4097
12.992746,4113
12.993744,4817
12.994744,3808
12.995745,4689
12.996747,3488
12.997746,4064
12.998745,3968
12.999743,3792
13.000747,4913
13.001747,4241
13.002746,3856
13.003743,3360
13.004746,3680
13.005745,4193
13.006744,3728
13.007745,3408
13.008744,3536
13.009745,3312
13.010745,3456
13.011745,5889
13.012743,6433
13.013745,4577
13.014746,4321
13.015745,3760
13.016748,4369
13.017745,4433
13.018744,3568
13.019744,3584
13.020748,4785
13.021746,3328
13.022745,5329
13.023745,4080
13.024762,4193
13.025753,4113
13.026748,5249
13.027747,4241
13.028744,4561
13.029744,4833
13.030745,4353
13.031748,3408
13.032744,4241
13.033745,4673
13.034746,3840
13.035745,3408
13.036746,3744
13.192555,3968
13.193284,7137
13.193772,8258
13.194226,7761
13.194664,6161
13.195179,5425
13.195614,4497
13.196060,4657
13.196502,3104
13.196966,3712
13.197407,4449
13.197852,3488
13.198296,3296
13.198744,3344
13.199189,4161
13.199745,3760
13.200745,4993
13.201745,4048
13.202745,3600
13.203745,4321
13.204745,4497
13.205746,3584
13.206747,3648
13.207745,5313
13.208747,5457
13.209743,4177
13.210744,4849
13.211746,4321
13.212745,3808
13.213747,3488
13.214746,3872
13.215745,4289
13.216768,4177
13.217750,5873
13.218746,5537
13.219747,3456
13.220745,3696
13.221747,3552
13.222747,6865
13.223744,4737
13.224747,3872
13.225743,4401
13.226745,4401
13.227745,3536
13.228746,3600
13.229745,4577
13.230746,4016
13.231747,4241
13.232745,4305
13.233746,3520
13.234745,3472
13.235746,3888
13.236745,5393
13.237744,3856
13.238745,4000
13.239743,4529
13.240746,3536
13.241745,4993
13.242746,5745
13.243744,4577
13.244746,3776
13.245744,4289
13.246745,4016
13.247745,4000
13.248743,3792
13.249747,3328
13.250745,3424
13.251746,3680
13.252744,5377
13.253745,4129
13.254745,3920
13.255744,3632
13.256745,6497
13.257747,5297
13.258744,4449
13.259746,4257
13.260745,4481
13.261746,3424
13.262745,4321
13.263745,4289
13.264744,3760
13.265747,3728
13.266746,5297
13.267747,3824
13.268745,3680
13.269746,4048
13.270745,3984
13.271746,4000
13.272745,3728
13.273747,4032
13.274746,4000
13.275747,4657
13.276744,5937
13.277745,3872
13.278746,4353
13.279745,4769
13.280767,3984
13.281747,3856
13.282747,4401
13.283746,4801
13.284745,4465
13.285746,4689
13.286744,3872
13.287745,3280
13.288744,4097
13.289744,5169
13.290745,3792
13.291746,4721
13.292745,3808
13.293745,3568
13.294746,4337
13.295745,4641
13.296744,5009
13.297746,3504
13.298744,3792
13.299745,4032
13.300743,3792
13.301743,4753
13.302745,4000
13.303746,3936
13.304747,4193
13.305746,4465
13.306743,3632
13.307746,4097
13.308743,3904
13.309747,4177
13.310747,3760
13.311745,4881
13.312744,3760
13.313745,4113
13.314747,5057
13.315745,6193
13.316745,4225
13.317745,4177
13.318745,3664
13.319746,3536
13.320745,3408
13.321746,4369
13.322746,4321
13.323745,4145
13.324746,3968
13.325747,3536
13.326747,3744
13.327746,4161
13.328745,4129
13.329746,3840
13.330744,3600
13.331745,3776
13.332745,5089
13.333744,5345
13.334745,5537
13.335744,4097
13.336745,4513
13.337744,5009
13.338746,3968
13.339745,4481
13.340746,3776
13.341744,3984
13.342744,4545
13.343744,3696
13.344761,4689
13.345752,3472
13.346746,3136
13.347744,5265
13.348747,3376
13.349747,3968
13.350746,3696
13.351744,3952
13.352746,5969
13.353747,4481
13.354743,4064
13.355745,4129
13.356746,3456
13.357745,6177
13.358745,4545
13.359747,6049
13.360745,4289
13.361744,3792
13.362745,4545
13.363745,4353
13.364745,4545
13.365744,3904
13.366747,4209
13.367746,4097
13.368747,3760
13.369746,3648
13.370745,4241
13.371746,5041
13.372746,4273
13.373744,4705
13.374745,3488
13.375747,3760
13.376745,3792
13.377745,3872
13.378747,4289
13.379745,6225
13.380745,4945
13.381745,4048
13.382747,3616
13.383744,4897
13.537101,6097
13.537967,4433
13.538594,4032
13.539203,4913
13.539800,4945
13.540458,4577
13.541051,3936
13.541645,3840
13.542241,4097
13.542861,4225
13.543455,4225
13.544058,3808
13.544652,4577
13.545251,4401
13.545852,2832
13.546449,3936
13.547054,5297
13.547670,4657
13.548279,3760
13.548881,3216
13.549746,4337
13.550745,5249
13.551744,5041
13.552744,4097
13.553744,3728
13.554745,3840
13.555745,4705
13.556744,3904
13.557745,3664
13.558745,3888
13.559746,3872
13.560747,4080
13.561747,4833
13.562745,3744
13.563745,4385
13.564746,3760
13.565746,3824
13.566747,3552
13.567745,3936
13.568746,4737
13.569745,3936
13.570747,4897
13.571744,4032
13.572745,3984
13.573744,4321
13.574745,4801
13.575745,3728
13.576747,3920
13.577745,5169
13.578745,4929
13.579745,4032
13.580747,5169
13.581745,5953
13.582745,4177
13.583746,3520
13.584742,3984
13.585746,5841
13.586745,4545
13.587747,5697
13.588745,5201
13.589745,3840
13.590745,3744
13.591745,4673
13.592745,4641
13.593744,4257
13.594746,4193
13.595745,4177
13.596746,3680
13.597744,3904
13.598747,3648
13.599744,4145
13.600762,5681
13.601746,3856
13.602747,4561
13.603748,3552
13.604745,3712
13.605747,4625
13.606745,4529
13.607746,3856
13.608745,5521
13.609745,4929
13.610745,3792
13.611747,4257
13.612746,4913
13.613745,5217
13.614747,3872
13.615745,4609
13.616748,3600
13.617743,4016
13.618746,5409
13.619745,4225
13.620745,3776
13.621745,3632
13.622745,3744
13.623744,4032
13.624743,6097
13.625745,4929
13.626745,4929
13.627744,3696
13.628744,3856
13.629746,3456
13.630745,6049
13.631745,4369
13.632746,3872
13.633744,3632
13.634744,3888
13.635745,3920
13.636745,3888
13.637745,4817
13.638745,4753
13.639745,4097
13.640744,3936
13.641745,4161
13.642745,4577
13.643745,3904
13.644745,4305
13.645745,4401
13.646745,3904
13.647745,4417
13.648745,5185
13.649745,5265
13.650747,4305
13.651745,4032
13.652746,3536
13.653745,3968
13.654745,3888
13.655746,4241
13.656746,5297
13.657744,4769
13.658745,3808
13.659745,3776
13.660745,4080
13.661744,4961
13.662745,4289
13.663745,3744
13.664762,4225
13.665748,4064
13.666748,4161
13.667745,5009
13.668746,3760
13.669745,4016
13.670744,4097
13.671746,4305
13.672745,5393
13.673746,5057
13.674747,4449
13.675745,4193
13.676746,4273
13.677747,4737
13.678745,3904
13.679745,3344
13.680745,3792
13.681745,5345
13.682745,3888
13.683745,3872
13.684746,3648
13.685746,3760
13.686744,5153
13.687745,5553
13.688746,5425
13.689745,4097
13.690744,3904
13.691745,4080
13.692747,4385
13.693747,4705
13.694746,4064
13.695746,5281
13.696746,5297
13.697748,4625
13.698745,4016
13.699745,4097
13.700745,4577
13.701745,3888
13.702745,5025
13.703744,5649
13.704744,3888
13.705745,5281
13.706747,3760
13.707743,3936
13.708746,4193
13.709744,4064
13.710746,4000
13.711744,4080
13.712746,3664
13.713747,6369
13.714743,4016
13.715746,4225
13.716744,4913
13.717745,3984
13.718744,4177
13.719744,7809
13.720745,4353
13.721745,5313
13.722745,4145
13.723741,4273
13.724747,4000
13.725743,4241
13.726746,3872
13.727746,4064
13.728763,5169
13.840862,4913
13.841863,3680
13.842644,3984
13.843415,5953
13.844175,4929
13.845006,4353
13.845761,4177
13.846513,4241
13.847271,3904
13.848051,4032
13.848810,3728
13.849573,4721
13.850332,4545
13.851094,4945
13.851857,5121
13.852620,4225
13.853386,3984
13.854176,3616
13.854943,4129
13.855711,4016
13.856631,4129
13.857406,3984
13.858172,4129
13.858940,5185
13.859705,3408
13.860475,3744
13.861247,4449
13.862024,6465
13.862796,7617
13.863567,4817
13.864343,4401
13.865115,3600
13.865892,3344
13.866744,5393
13.867745,4016
13.868746,4032
13.869745,5457
13.870745,4721
13.871746,4145
13.872745,4016
13.873744,4193
13.874745,4257
13.875745,4417
13.876748,5249
13.877745,5185
13.878748,5697
13.879745,4016
13.880744,4048
13.881745,4385
13.882745,4241
13.883746,4657
13.884744,5009
13.885747,5217
13.886744,4064
13.887744,4545
13.888743,3856
13.889744,4833
13.890744,4737
13.891747,4801
13.892745,4929
13.893745,4753
13.894746,4641
13.895744,3776
13.896743,4913
13.897746,5089
13.908012,5121
13.908242,4913
13.908457,5825
13.908670,5201
13.908887,5601
13.909105,4369
13.909321,4113
13.909541,4513
13.909762,4225
13.909982,4257
13.910746,4369
13.911745,4801
13.912745,4161
13.913745,4241
13.914745,4161
13.915744,3936
13.916748,4497
13.917745,4241
13.918745,4000
13.919746,4305
13.920767,5441
13.921751,4417
13.922746,3728
13.923746,4129
13.924745,6561
13.925746,4561
13.926745,5329
13.927745,4993
13.928745,3968
13.929745,4177
13.930746,4417
13.931745,4225
13.932743,4241
13.933746,4145
13.934746,4673
13.935745,5169
13.936746,3936
13.937745,5121
13.938745,4961
13.939744,4161
13.940744,4657
13.941747,4209
13.942747,3840
13.943746,4897
13.944747,3936
13.945745,4737
13.946745,4097
13.947745,4257
