Tempo(s),EMG_Value
0.004630,4881
0.006135,4257
0.006538,4705
0.007468,4497
0.008462,3360
0.009462,3760
0.010460,4161
0.011460,3600
0.012460,7377
0.013460,4865
0.014461,3488
0.015460,3760
0.016461,4673
0.017459,3536
0.018462,5265
0.019460,3664
0.020461,3936
0.021461,3760
0.022459,3744
0.023461,3968
0.024460,5201
0.025462,3984
0.026459,3664
0.027460,3536
0.028462,4849
0.029460,3856
0.030460,6417
0.031460,5281
0.032462,3360
0.033460,3712
0.034461,3632
0.035458,6369
0.036458,5185
0.037462,4481
0.038459,3888
0.039461,3488
0.040459,3984
0.041460,4673
0.042459,3840
0.043460,3744
0.044459,3728
0.045460,5473
0.046460,4577
0.047460,4000
0.048461,4032
0.049478,3984
0.050461,3552
0.051462,4113
0.052461,3296
0.053458,3648
0.054462,5073
0.055459,4417
0.056459,3920
0.057460,3872
0.058462,3424
0.059460,4753
0.060460,4817
0.061459,3520
0.062461,4497
0.063460,3216
0.064461,4161
0.065458,4849
0.066462,3664
0.067462,4913
0.068460,3776
0.069460,4241
0.070461,3472
0.071460,3984
0.072459,3440
0.073459,5025
0.074462,4769
0.075460,4113
0.076462,4641
0.077461,5409
0.078460,3728
0.079460,3488
0.080463,4257
0.081461,4641
0.082458,3744
0.083460,5329
0.084460,5777
0.085459,4673
0.086460,5809
0.087460,3632
0.088459,4769
0.089461,3584
0.090460,4032
0.091460,4417
0.092460,4048
0.093462,4561
0.094461,3872
0.095460,5633
0.096459,4032
0.097461,3584
0.098460,4465
0.099461,4641
0.100460,3536
0.101460,3664
0.102460,3696
0.103461,3712
0.104461,3808
0.105458,4289
0.106462,3904
0.107460,3648
0.108460,4064
0.109462,3984
0.110460,3680
0.111460,3568
0.112461,4561
0.113474,5969
0.114466,7457
0.115462,4064
0.116462,3712
0.117461,3648
0.118460,4145
0.119460,4129
0.120460,3680
0.121462,3376
0.122462,3808
0.123460,4161
0.124458,3536
0.125461,4305
0.126460,3552
0.127458,3456
0.128463,4289
0.129460,4993
0.130460,4241
0.131460,4257
0.132460,4257
0.133458,4273
0.134460,4609
0.135461,4209
0.136460,4032
0.137461,3728
0.138460,3520
0.139460,3552
0.140459,6305
0.141461,4016
0.142461,3104
0.143460,3504
0.144462,5297
0.145462,3488
0.146460,3872
0.147460,3328
0.148460,6337
0.149461,4080
0.150460,4241
0.151460,4177
0.152460,4016
0.153461,3664
0.154462,4225
0.155458,3616
0.156460,4433
0.157460,4097
0.158462,4353
0.159462,3648
0.160460,3744
0.161462,4064
0.162460,4385
0.163461,3776
0.164462,3984
0.165460,4369
0.166462,3776
0.167460,4545
0.168460,4433
0.169460,3920
0.170460,3456
0.171461,4161
0.172460,4529
0.173460,3552
0.174459,4257
0.175461,4657
0.176460,4481
0.177476,4833
0.178466,4337
0.179461,4113
0.180460,3376
0.181459,3584
0.182461,3520
0.183460,4817
0.184460,3680
0.185461,3552
0.186459,3648
0.187461,4433
0.188460,4273
0.189460,3536
0.190457,3392
0.191458,6833
0.192461,4305
0.193460,4177
0.194459,4113
0.195460,3520
0.196461,3504
0.197460,3424
0.198461,3664
0.199460,6225
0.200460,4273
0.201461,3808
0.202461,3328
0.203461,4080
0.325357,4929
0.326007,5281
0.326408,4865
0.326796,4961
0.327174,5057
0.327622,4993
0.327992,5265
0.328364,4993
0.328742,4993
0.329137,4865
0.329514,4225
0.329890,4353
0.330266,3856
0.330643,4241
0.331460,3888
0.332461,3856
0.333459,4625
0.334461,3296
0.335459,4064
0.336458,3968
0.337461,3456
0.338459,4145
0.339461,5105
0.340460,3920
0.341460,3648
0.342460,6065
0.343460,4241
0.344460,3888
0.345462,3328
0.346459,4961
0.347460,3936
0.348460,5313
0.349462,4385
0.350460,4385
0.351462,3456
0.352461,3232
0.353460,3664
0.354460,4161
0.355460,3008
0.356460,5345
0.357460,3712
0.358461,3824
0.359460,3328
0.360461,3904
0.361460,5137
0.362459,6865
0.363462,4433
0.364459,3760
0.365460,3680
0.366460,4209
0.367460,4609
0.368460,3888
0.369488,3296
0.370468,4161
0.371459,3744
0.372461,5009
0.373459,4609
0.374462,4273
0.375461,3728
0.376460,3712
0.377461,3664
0.378457,3904
0.379462,3872
0.380460,4801
0.381462,3936
0.382460,3776
0.383460,3344
0.384459,3936
0.385459,4080
0.386460,3680
0.387462,4048
0.388460,6209
0.389462,4641
0.390460,3408
0.391460,3600
0.392459,4817
0.393460,3984
0.394461,3536
0.395459,4048
0.396461,4064
0.397460,4032
0.398460,3344
0.399458,4080
0.400460,3664
0.401460,3408
0.402460,3792
0.403461,3984
0.404462,3552
0.405460,5057
0.406460,3520
0.407459,4113
0.408460,3296
0.409460,5745
0.410462,4289
0.411460,3904
0.412461,4561
0.413461,4577
0.414459,4000
0.415459,3472
0.416462,3808
0.417461,4929
0.418459,4161
0.419462,4097
0.420460,5361
0.421460,4097
0.422460,3664
0.423459,4337
0.424460,3616
0.425459,3872
0.426461,6177
0.427460,4113
0.428460,3616
0.429459,4561
0.430460,4032
0.431461,3840
0.432460,4513
0.433475,4545
0.434473,4625
0.435463,3584
0.436461,4945
0.437460,3648
0.438460,3856
0.439460,3408
0.440460,4193
0.441459,3744
0.442459,3856
0.443459,3904
0.444460,4064
0.445459,4497
0.446461,3824
0.447458,3728
0.448458,3600
0.449462,3616
0.450461,3264
0.451460,4401
0.452460,4737
0.453462,3936
0.454459,3552
0.455460,3536
0.456461,4225
0.457461,3968
0.458460,3712
0.459458,3808
0.460462,3472
0.461461,4161
0.462460,5521
0.463461,4545
0.464460,3840
0.465461,3296
0.466460,5329
0.467460,4129
0.468460,4417
0.469458,4561
0.470462,3600
0.471460,3776
0.472458,3424
0.473461,3920
0.474462,3904
0.475460,4257
0.476460,4801
0.477460,4657
0.478459,4321
0.479461,3584
0.480462,4993
0.481462,3344
0.482460,3504
0.483462,3712
0.484460,4193
0.485459,3792
0.486460,6705
0.487462,3296
0.488459,5217
0.489460,6673
0.490460,8177
0.491460,4817
0.492461,3968
0.493459,3648
0.494461,4145
0.495459,4609
0.496463,3744
0.497477,4225
0.498465,3360
0.499460,5633
0.500459,4145
0.501460,3552
0.502460,4545
0.503460,3840
0.504460,3792
0.505461,3392
0.506459,4000
0.507460,4257
0.508460,6049
0.509461,5665
0.510460,3616
0.511463,3648
0.512461,3520
0.513459,3968
0.514460,4016
0.515460,3696
0.516460,3552
0.671712,4673
0.672497,3536
0.673051,4321
0.673589,3664
0.674114,3376
0.674710,5009
0.675238,4641
0.675766,4433
0.676289,4241
0.676840,3712
0.677371,4161
0.677915,3920
0.678445,4561
0.678976,4769
0.679509,3840
0.680037,3904
0.680570,3808
0.681460,3712
0.682462,3536
0.683460,4801
0.684458,4817
0.685460,3328
0.686460,3600
0.687461,5169
0.688460,3968
0.689483,3728
0.690467,5697
0.691462,3728
0.692461,4193
0.693460,4689
0.694462,4161
0.695460,3280
0.696460,4305
0.697462,3760
0.698460,5057
0.699459,4449
0.700460,3856
0.701460,4193
0.702460,4032
0.703459,3584
0.704459,3872
0.705459,4801
0.706460,4097
0.707462,3424
0.708460,3648
0.709461,3728
0.710460,4753
0.711458,4225
0.712462,4945
0.713460,4561
0.714460,4561
0.715462,4401
0.716461,4417
0.717463,4929
0.718460,3632
0.719461,3328
0.720462,3936
0.721462,4177
0.722460,3888
0.723462,3648
0.724460,4449
0.725458,5073
0.726460,4641
0.727463,3856
0.728460,3744
0.729460,4609
0.730460,4016
0.731458,4321
0.732459,4529
0.733461,4401
0.734461,5329
0.735460,4353
0.736461,3392
0.737459,3856
0.738460,5393
0.739461,3968
0.740460,4129
0.741462,3616
0.742458,3872
0.743461,3744
0.744460,3760
0.745460,3776
0.746459,4737
0.747460,4000
0.748462,4625
0.749461,5025
0.750460,3968
0.751461,4529
0.752461,4993
0.753482,3968
0.754461,4000
0.755461,3936
0.756463,4609
0.757460,4097
0.758460,3600
0.759459,4161
0.760459,5185
0.761461,4064
0.762459,4048
0.763461,4080
0.764459,3728
0.765460,3968
0.766459,4513
0.767459,4593
0.768462,4064
0.769462,3824
0.770460,4945
0.771461,3392
0.772460,3648
0.773459,4016
0.774460,5665
0.775459,3616
0.776460,4080
0.777460,5601
0.778461,4016
0.779458,4657
0.780460,4145
0.781460,5217
0.782460,4353
0.783462,4273
0.784462,5697
0.785460,4945
0.786461,4064
0.787462,3424
0.788460,3488
0.789461,5521
0.790459,4080
0.791459,3744
0.792460,4000
0.793460,4449
0.794459,4257
0.795460,4064
0.796459,3792
0.797460,3776
0.798461,4097
0.799461,4064
0.800460,4401
0.801459,4129
0.802462,4016
0.803460,4737
0.804462,3552
0.805460,3680
0.806462,3728
0.807462,4016
0.808460,3744
0.809460,4497
0.810457,4225
0.811460,4225
0.812459,4481
0.813460,4865
0.814460,4241
0.815461,4529
0.816460,4193
0.817477,4929
0.818466,3776
0.819464,3792
0.820464,3200
0.821460,3792
0.822460,5009
0.823461,5777
0.824460,5281
0.825459,5617
0.826462,3632
0.827461,4225
0.828460,5185
0.829460,4032
0.830461,3920
0.831460,5249
0.832460,3968
0.833459,5441
0.834459,4673
0.835461,5425
0.836459,3552
0.837458,4577
0.838462,4673
0.839461,4177
0.840462,3776
0.841459,3840
0.842461,3616
0.843458,4945
0.844460,3536
0.845461,5009
0.846460,3872
0.847460,3664
0.848461,3920
0.849460,3872
0.850461,4353
0.851462,4897
0.852461,3920
0.853460,3664
0.854460,4641
0.855460,4417
0.856460,3808
0.857460,3584
0.858458,4449
0.859459,5569
0.860461,4481
0.861460,4257
0.862460,3760
0.863459,3712
1.011527,4785
1.012464,5521
1.013170,6465
1.013857,4753
1.014542,3600
1.015288,3648
1.015970,3392
1.016653,5457
1.017329,5505
1.018034,4225
1.018720,5313
1.019399,4545
1.020086,4273
1.020777,4625
1.021463,4801
1.022144,4481
1.022831,4032
1.023536,3840
1.024221,3152
1.024907,5249
1.025599,3936
1.026281,5553
1.026970,4961
1.027660,4353
1.028341,4097
1.029033,4273
1.029726,4897
1.030461,4161
1.031462,3600
1.032461,5393
1.033461,4609
1.034459,4129
1.035460,4961
1.036461,4305
1.037462,4032
1.038458,3872
1.039460,3920
1.040461,4497
1.041462,3840
1.042460,4000
1.043461,3712
1.044460,4080
1.045460,4193
1.046460,5089
1.047458,5153
1.048461,4177
1.049460,4417
1.050459,4241
1.051461,4625
1.052460,3984
1.053460,3680
1.054460,4016
1.055459,4801
1.056460,3920
1.057459,4048
1.058458,4321
1.059461,4449
1.060460,4385
1.061461,3792
1.062460,3904
1.063460,4561
1.064461,4000
1.065462,3616
1.066462,4385
1.067462,5329
1.068459,3984
1.069459,4145
1.070461,4241
1.071459,4257
1.072458,4321
1.073477,5713
1.074463,4625
1.075458,4289
1.076461,4016
1.077459,4080
1.078461,4161
1.079460,4401
1.080459,4913
1.081460,3840
1.082460,3888
1.083458,4641
1.084461,3920
1.085460,4016
1.086458,4657
1.087460,3888
1.088462,4353
1.089461,3904
1.090460,4513
1.091461,4225
1.092459,4369
1.093461,4689
1.094461,4849
1.095459,4113
1.096459,3808
1.097460,4449
1.098461,4145
1.099461,4257
1.100460,3936
1.101458,5473
1.102461,4016
1.103462,4385
1.104461,5313
1.105460,4305
1.106461,4145
1.107460,4016
1.108460,3904
1.109459,4032
1.110458,5121
1.111461,5265
1.112458,4113
1.113462,3664
1.114460,4129
1.115461,4449
1.116459,4641
1.117460,3968
1.118460,4817
1.119461,4801
1.120458,3968
1.121460,4000
1.122460,4177
1.123459,6081
1.124460,5409
1.125460,4000
1.126462,3584
1.127461,4417
1.128460,5137
1.129460,4497
1.130461,4689
1.131460,5073
1.132460,4048
1.133458,4097
1.134461,3968
1.135459,4080
1.136462,3680
1.137476,5009
1.138462,3680
1.139462,5089
1.140458,4609
1.141460,4177
1.142460,4209
1.143462,3728
1.144460,4016
1.145460,4465
1.146461,5713
1.147460,4993
1.148460,4193
1.149458,4000
1.150460,4241
1.151460,4993
1.152461,3888
1.153460,4913
1.154460,4881
1.155461,5041
1.156460,4609
1.157459,3984
1.158460,4289
1.159461,4497
1.160458,4145
1.161458,3984
1.162462,4193
1.163459,4897
1.164460,3920
1.165462,3712
1.166460,5009
1.167459,4929
1.168460,4161
1.169460,3808
1.170462,4561
1.171461,4273
1.172461,3808
1.173460,4353
1.174460,4193
1.175460,4641
1.176460,3792
1.177460,3792
1.178459,4641
1.179460,4961
1.180461,4561
1.181460,4657
1.182458,4289
1.183462,4064
1.184460,4048
1.185458,5505
1.186462,4129
1.187460,4209
1.188460,4513
1.189462,3600
1.190460,4465
1.191460,4657
1.192463,4064
1.193459,3984
1.194461,4289
1.195460,4993
1.196460,4577
1.197458,4465
1.198461,5025
1.199460,4705
1.200461,4289
1.201476,3984
1.202465,3808
1.323245,5681
1.323754,4353
1.324033,4257
1.324273,4545
1.324517,3936
1.324774,3968
1.325011,4048
1.325254,4753
1.325495,4369
1.325752,4817
1.325992,4273
1.326462,4529
1.327460,4257
1.328461,4000
1.329485,4577
1.330464,4849
1.331462,4193
1.332462,4801
1.333461,5617
1.334461,4641
1.335460,4481
1.336460,4177
1.337460,4177
1.338460,4641
1.339460,4961
1.340461,4481
1.341461,4753
1.342459,4225
1.343462,3984
1.344460,4449
1.345458,4321
1.346460,4097
1.347461,4032
1.348460,3792
1.349460,4385
1.350460,4945
1.351461,4273
1.352461,4513
1.353461,5185
1.354461,4321
1.355459,5409
1.356460,4961
1.357461,4145
1.358461,4193
1.359462,4801
1.360460,5169
1.361459,4353
1.362460,4561
1.363459,4369
1.364459,4385
1.365459,4513
1.366462,4257
1.367460,4385
1.368460,4529
1.369460,4225
1.370461,4000
1.371460,5041
1.372460,4337
1.373459,4209
1.374459,5793
1.375461,4945
1.376461,4369
1.377457,4913
1.378460,4289
1.379461,4289
1.380459,6097
1.381459,4833
1.382461,4449
1.383460,4433
1.384459,4241
1.385460,4273
1.386461,4769
1.387462,4945
1.388458,4769
1.389462,5009
1.390460,4273
1.391460,4145
1.392458,4433
1.393478,5249
1.394470,3792
1.395465,3872
1.396462,4737
1.397461,4225
1.398461,4305
1.399460,4801
1.400460,4881
1.401458,4529
1.402460,4657
1.403460,4705
1.404461,5153
1.405460,4369
1.406460,4145
1.407461,4641
1.408462,4305
1.409456,5361
1.410461,4032
1.411460,5057
1.412458,5393
1.413460,4064
1.414461,3792
1.415462,4545
1.416460,4753
1.417461,3984
1.418461,4305
1.419459,4497
1.420460,4609
1.421460,4513
1.422460,4577
1.423460,5041
1.424459,5585
1.425460,4225
1.426462,4769
1.427460,4577
1.428460,4113
1.429460,4545
1.430459,4513
1.431459,4561
1.432461,4753
1.433461,4337
1.434461,4161
1.435462,4497
1.436458,5329
1.437461,4737
1.438461,4289
1.439460,4513
1.440460,6481
1.441461,4561
1.442459,4353
1.443460,4273
1.444459,4257
1.445460,4785
1.446460,4353
1.447461,4016
1.448459,4961
1.449462,4113
1.450461,4641
1.451460,4609
1.452460,4769
1.453459,4369
1.454458,4529
1.455462,4769
1.456460,4561
1.457478,3920
1.458468,3984
1.459463,4609
1.460460,4113
1.461460,4385
1.462460,4913
1.463460,4529
1.464461,4433
1.465461,5249
1.466459,4000
1.467461,5073
1.468460,4993
1.469462,4785
1.470461,4801
1.471461,4417
1.472459,4657
1.473461,4401
1.474461,4433
1.475460,5025
1.476462,5089
1.477458,4369
1.478460,4145
1.479461,5409
1.480459,4289
1.481462,4161
1.482460,4433
1.483460,4177
1.484458,5121
1.485459,4945
1.486460,4513
1.487460,4561
1.488462,4273
1.489459,5025
1.490462,4481
1.491462,4032
1.492462,4289
1.493459,4129
1.494461,4481
1.495460,4785
1.496458,4945
1.497460,4753
1.498462,4209
1.499460,5457
1.500460,5153
1.501460,5633
1.502460,4673
1.503460,4337
1.504461,3920
1.505459,4577
1.506460,4337
1.507462,5857
1.508459,4433
1.509462,5137
1.510461,5665
1.511459,5153
1.512461,5169
1.513460,4609
1.514461,4433
1.665479,4529
1.666115,4401
1.666551,3744
1.666953,4305
1.667348,4385
1.667808,4929
1.668199,4417
1.668594,4289
1.668983,4865
1.669393,3936
1.669793,3856
1.670184,4449
1.670583,4513
1.670976,3792
1.671460,5169
1.672461,4609
1.673460,4193
1.674459,4481
1.675460,5393
1.676460,4577
1.677461,4225
1.678460,4625
1.679459,4945
1.680460,4353
1.681460,4385
1.682459,4817
1.683462,5665
1.684460,4545
1.685461,4593
1.686461,5521
1.687460,4401
1.688461,4193
1.689460,4641
1.690458,4945
1.691461,4529
1.692458,4449
1.693460,4865
1.694462,4353
1.695459,5009
1.696462,4801
1.697460,4273
1.698459,4833
1.699461,5073
1.700460,4609
1.701461,4369
1.702460,4449
1.703459,4929
1.704460,4161
1.705460,4273
1.706461,5761
1.707459,4401
1.708461,5137
1.709460,4481
1.710460,4257
1.711460,4113
1.712459,4689
1.713479,3760
1.714464,5473
1.715460,4577
1.716461,5665
1.717460,4385
1.718461,4305
1.719460,4048
1.720461,5985
1.721460,5009
1.722462,4769
1.723462,3536
1.724459,4913
1.725462,4625
1.726460,4689
1.727460,4305
1.728462,4225
1.729459,5825
1.730461,6081
1.731461,4625
1.732460,3888
1.733460,4433
1.734462,5281
1.735460,5313
1.736462,4977
1.737461,4337
1.738459,4209
1.739461,4465
1.740462,4673
1.741461,4353
1.742459,4481
1.743460,7217
1.744460,4689
1.745460,4401
1.746459,4449
1.747460,4785
1.748460,6609
1.749460,4689
1.750460,4016
1.751461,4481
1.752461,5729
1.753458,4817
1.754462,4929
1.755462,4897
1.756459,4737
1.757460,4609
1.758460,4417
1.759462,4113
1.760461,4465
1.761460,4449
1.762461,4641
1.763460,6321
1.764462,4193
1.765462,4161
1.766460,5857
1.767462,4961
1.768461,4737
1.769459,4481
1.770460,4993
1.771458,4417
1.772461,4064
1.773460,4385
1.774459,5009
1.775461,3936
1.776459,4849
1.777475,4689
1.778467,4225
1.779463,5073
1.780460,4449
1.781460,4545
1.782462,4897
1.783460,5137
1.784459,4753
1.785460,4897
1.786459,4609
1.787462,4369
1.788458,4961
1.789459,4145
1.790462,4673
1.791460,6049
1.792461,5041
1.793461,4881
1.794459,4785
1.795461,4849
1.796462,6097
1.797462,4513
1.798463,7105
1.799462,4833
1.800458,5041
1.801460,4865
1.802459,4561
1.803459,3392
1.804459,4769
1.805461,4401
1.806460,4593
1.807461,5025
1.808459,5313
1.809461,5089
1.810459,4048
1.811461,4801
1.812458,4705
1.813462,5073
1.814461,4657
1.815462,4145
1.816462,4161
1.817462,5841
1.818458,5713
1.819460,4129
1.820460,4337
1.821461,4161
1.822461,5281
1.823460,4817
1.824459,4817
1.825459,4513
1.826462,4177
1.827460,4369
1.828461,5025
1.829460,4673
1.830459,7745
1.831459,4609
1.832460,5089
1.833462,4401
1.834460,5393
1.835459,4241
1.836460,4497
1.837460,4545
1.838460,4993
1.839459,4689
1.840460,4353
1.841480,4064
1.842468,4657
1.843462,4481
1.844461,4481
1.845460,4513
1.846460,4737
1.847461,5185
1.848460,4561
1.849460,5281
1.850459,4257
1.851460,3264
1.852459,5681
1.853461,5441
1.854460,4161
1.855460,4657
1.856460,5457
2.006577,4689
2.007367,4401
2.007943,4048
2.008499,4481
2.009045,5953
2.009666,5137
2.010209,5537
2.010752,4000
2.011298,4689
2.011865,4289
2.012416,4913
2.012966,4641
2.013517,4689
2.014065,5073
2.014618,4705
2.015165,5089
2.015716,4801
2.016283,4321
2.016835,4561
2.017461,4897
2.018462,4529
2.019460,4753
2.020458,3664
2.021461,4433
2.022460,5681
2.023461,5185
2.024462,4401
2.025459,5153
2.026462,5441
2.027460,3840
2.028460,5137
2.029459,4161
2.030459,4000
2.031459,4561
2.032484,4913
2.033464,4000
2.034460,4353
2.035460,4225
2.036460,4048
2.037460,5057
2.038462,6961
2.039460,4401
2.040460,4865
2.041460,4609
2.042460,5553
2.043461,3872
2.044460,4561
2.045461,4785
2.046458,5393
2.047460,4064
2.048459,4097
2.049460,4401
2.050461,4593
2.051459,6209
2.052461,5617
2.053459,4097
2.054460,4961
2.055458,3424
2.056461,4273
2.057462,5649
2.058462,4097
2.059460,3600
2.060461,5729
2.061458,3296
2.062462,4353
2.063461,6209
2.064460,5153
2.065461,4561
2.066460,4241
2.067459,4016
2.068461,4289
2.069459,3792
2.070462,4385
2.071460,5041
2.072462,4865
2.073459,4000
2.074461,4481
2.075460,4097
2.076461,5057
2.077460,4609
2.078458,3472
2.079462,4369
2.080460,4417
2.081460,4161
2.082458,3488
2.083459,5153
2.084460,4865
2.085460,4545
2.086462,4945
2.087461,4545
2.088460,4529
2.089460,4321
2.090459,4048
2.091460,3472
2.092460,5057
2.093461,4545
2.094458,3520
2.095461,4993
2.096475,3760
2.097465,4241
2.098462,4481
2.099458,4385
2.100461,6977
2.101458,3888
2.102460,4048
2.103460,5265
2.104459,3984
2.105462,4273
2.106460,4657
2.107461,4241
2.108460,3888
2.109460,4529
2.110460,5473
2.111460,3792
2.112460,4016
2.113460,3424
2.114458,3632
2.115462,4609
2.116458,5137
2.117460,4529
2.118460,4080
2.119460,3600
2.120460,3584
2.121459,7825
2.122460,5121
2.123460,5313
2.124459,3760
2.125457,3296
2.126460,3808
2.127461,5281
2.128460,4064
2.129461,6737
2.130460,4817
2.131461,4497
2.132461,4497
2.133461,4785
2.134460,4161
2.135460,4753
2.136460,3504
2.137458,3488
2.138460,3616
2.139459,4161
2.140460,4769
2.141460,4321
2.142461,4337
2.143460,3104
2.144461,4641
2.145461,5377
2.146460,4161
2.147462,3904
2.148461,4032
2.149461,4449
2.150458,3664
2.151460,3968
2.152460,5425
2.153460,4000
2.154459,4417
2.155458,4561
2.156461,4417
2.157460,4753
2.158462,5025
2.159459,5329
2.160488,4865
2.161466,4129
2.162460,3408
2.163459,3984
2.164458,4289
2.165458,4064
2.166461,4225
2.167462,4433
2.168460,4545
2.169462,4689
2.170460,5425
2.171460,3888
2.172460,4129
2.173461,6657
2.174459,4417
2.175459,3456
2.176462,4529
2.177458,5377
2.178460,4032
2.179462,4577
2.180458,5169
2.181459,4353
2.182459,3648
2.183460,3712
2.184460,3680
2.185460,3872
2.186460,4961
2.187462,4785
2.188460,3808
2.189460,3744
2.190460,4273
2.191462,4561
2.192461,4753
2.193460,3616
2.194461,4064
2.195462,5857
2.196460,4449
2.197462,4913
2.302927,4273
2.303885,4048
2.304626,3728
2.305338,4497
2.306048,4673
2.306822,4561
2.307530,3888
2.308233,4177
2.308947,4161
2.309667,4513
2.310369,4161
2.311080,5137
2.311786,3680
2.312499,3776
2.313203,3424
2.313914,5905
2.314629,6113
2.315361,5057
2.316077,4289
2.316794,4625
2.317508,4561
2.318219,5089
2.318939,4481
2.319660,3168
2.320374,3776
2.321092,4657
2.321810,3456
2.322525,4305
2.323460,3680
2.324462,3600
2.325460,4513
2.326460,5297
2.327458,4129
2.328461,3264
2.329460,3408
2.330460,4561
2.331459,4417
2.332460,4257
2.333461,3920
2.334461,4016
2.335460,3888
2.336460,3616
2.337462,3248
2.338461,6481
2.339460,3888
2.340461,3296
2.341460,3392
2.342461,4545
2.343461,5601
2.344461,4385
2.345460,3760
2.346462,4801
2.347460,3856
2.348460,3616
2.349458,4273
2.350462,3808
2.351462,4561
2.352586,3680
2.353479,3488
2.354463,4785
2.355464,4609
2.356460,3712
2.357460,4241
2.358462,3072
2.359461,4849
2.360460,4705
2.361460,4257
2.362460,3680
2.363460,3872
2.364463,4161
2.365461,3472
2.366459,3424
2.367460,3696
2.368461,5393
2.369460,4064
2.370462,3792
2.371461,3920
2.372460,3376
2.373460,3408
2.374460,4161
2.375460,5505
2.376460,5665
2.377461,5585
2.378459,3328
2.379458,3888
2.380461,4289
2.381459,3824
2.382458,5025
2.383458,3520
2.384460,4737
2.385458,4401
2.386458,4961
2.387461,4080
2.388461,3456
2.389458,3584
2.390462,3152
2.391458,4000
2.392460,3184
2.393459,4753
2.394462,5073
2.395460,3968
2.396458,3584
2.397461,3680
2.398459,4865
2.399458,3680
2.400462,3904
2.401458,4737
2.402461,4513
2.403460,3744
2.404462,3216
2.405461,5105
2.406458,3632
2.407462,4177
2.408458,4209
2.409459,3712
2.410459,3856
2.411459,3952
2.412460,3888
2.413459,3728
2.414460,3552
2.415460,3824
2.416460,4097
2.417475,4321
2.418463,3984
2.419460,4993
2.420460,4353
2.421460,3264
2.422458,4513
2.423459,4689
2.424459,4561
2.425460,3808
2.426461,3328
2.427460,3808
2.428460,3312
2.429460,5985
2.430462,4273
2.431460,3504
2.432461,3600
2.433460,4497
2.434460,5329
2.435460,3760
2.436460,3344
2.437461,5505
2.438458,4497
2.439461,3136
2.440462,3152
2.441461,4048
2.442462,4417
2.443460,4241
2.444461,3824
2.445460,3296
2.446461,4129
2.447462,4753
2.448460,4209
2.449460,4273
2.450460,4321
2.451459,3824
2.462019,5457
2.462240,4145
2.462447,4289
2.462657,3728
2.462866,5281
2.463073,5281
2.463282,6033
2.463492,6545
2.463702,5761
2.463909,5953
2.464461,4609
2.465461,4000
2.466461,4369
2.467460,3760
2.468460,3392
2.469460,4625
2.470461,3552
2.471459,3904
2.472460,4097
2.473460,4193
2.474462,4080
2.475462,4032
2.476460,4705
2.477460,3376
2.478460,3248
2.479462,3408
2.480460,4993
2.481475,4321
2.482463,3584
2.483461,4241
2.484460,6017
2.485462,4785
2.486460,3664
2.487459,3648
2.488460,5313
2.489461,4657
2.490460,3584
2.491460,5073
2.492462,3232
2.493460,6737
2.494460,5009
2.495461,4000
2.496460,3200
2.653408,5921
2.653968,4673
2.654281,4225
2.654582,3648
2.654869,4481
2.655220,3984
2.655507,3760
2.655793,5137
2.656080,4945
2.656381,4849
2.656671,5217
2.656960,4497
2.657459,4817
2.658462,4513
2.659459,3648
2.660461,3296
2.661461,4016
2.662461,3296
2.663460,3520
2.664462,3920
2.665462,4401
2.666458,4369
2.667460,4433
2.668459,3664
2.669463,5553
2.670462,5073
2.671461,3728
2.672485,3680
2.673465,4129
2.674460,3840
2.675459,3616
2.676460,4897
2.677462,4321
2.678462,4113
2.679459,4369
2.680461,3872
2.681459,3584
2.682460,3600
2.683460,3744
2.684459,3248
2.685459,4449
2.686461,3488
2.687460,5681
2.688460,5169
2.689459,3344
2.690461,3632
2.691459,3984
2.692460,3424
2.693459,3488
2.694461,5553
2.695460,5665
2.696460,4161
2.697461,3792
2.698459,3680
2.699460,3792
2.700459,3744
2.701462,4000
2.702462,3216
2.703458,5377
2.704461,4737
2.705461,3648
2.706460,4657
2.707460,3648
2.708460,3360
2.709460,3760
2.710463,4897
2.711460,3792
2.712460,3424
2.713460,3504
2.714459,6081
2.715458,5521
2.716459,4113
2.717460,4145
2.718461,3296
2.719460,4129
2.720459,3424
2.721461,4145
2.722461,4481
2.723462,3728
2.724460,4241
2.725462,3712
2.726462,3616
2.727461,3984
2.728460,4817
2.729460,4865
2.730461,4433
2.731461,4257
2.732462,4016
2.733460,4016
2.734459,4769
2.735460,4545
2.736473,4385
2.737465,3456
2.738460,4929
2.739463,4032
2.740460,3904
2.741462,3904
2.742460,3792
2.743459,3216
2.744460,3456
2.745461,4273
2.746460,6017
2.747462,3984
2.748460,4353
2.749460,4129
2.750460,4177
2.751460,4417
2.752460,3872
2.753460,3888
2.754460,5345
2.755460,4417
2.756460,3920
2.757461,3200
2.758458,5265
2.759460,3824
2.760460,4289
2.761463,3856
2.762462,3504
2.763461,4241
2.764460,3552
2.765460,3616
2.766462,5601
2.767460,3696
2.768458,3712
2.769460,3264
2.770460,4417
2.771459,4048
2.772462,5073
2.773460,4097
2.774461,5009
2.775460,4609
2.776461,4481
2.777461,4289
2.778462,3776
2.779460,3760
2.780459,3392
2.781459,3248
2.782460,4241
2.783460,4497
2.784458,3328
2.785462,3728
2.786460,4417
2.787458,4865
2.788461,4145
2.789460,4721
2.790461,4289
2.791458,4241
2.792460,3472
2.793460,3488
2.794460,3984
2.795462,3888
2.796460,4097
2.797460,3760
2.798461,3472
2.799461,5537
2.800474,4545
2.801465,2880
2.802460,3824
2.803460,6337
2.804460,3968
2.805460,3472
2.806461,3600
2.807460,3856
2.808461,3584
2.809460,3536
2.810459,6817
2.811460,5265
2.812460,4689
2.813463,4097
2.814460,3584
2.815458,4641
2.816462,4481
2.817459,3568
2.818460,3872
2.819460,3296
2.820462,4161
2.821460,4865
2.822462,3984
2.823460,4241
2.824460,4209
2.825460,3504
2.826458,3424
2.827461,3792
2.828461,3904
2.829462,3424
2.830461,4032
2.831458,3680
2.832460,4993
2.833460,3408
2.834460,5537
2.835461,5185
2.836460,3664
2.837460,4817
2.838459,4305
2.839459,4657
2.840460,3776
2.841460,4401
2.842462,3632
2.843458,4289
2.844460,4209
2.997108,4865
2.997814,4257
2.998279,4737
2.998733,4401
2.999171,4913
2.999689,4225
3.000131,4369
3.000573,4801
3.001010,3744
3.001468,3264
3.001912,3104
3.002351,3952
3.002796,4417
3.003239,5217
3.003680,4897
3.004460,3984
3.005459,3792
3.006460,3904
3.007458,4545
3.008461,3632
3.009461,3936
3.010460,4881
3.011461,4321
3.012460,5137
3.013461,4273
3.014461,3568
3.015461,3376
3.016459,3520
3.017460,4497
3.018460,4561
3.019461,4032
3.020461,3440
3.021460,3872
3.022462,4529
3.023459,3776
3.024461,3552
3.025459,5201
3.026459,4865
3.027460,3904
3.028460,5393
3.029460,5153
3.030460,4000
3.031459,4048
3.032461,4097
3.033461,4689
3.034461,3824
3.035461,3872
3.036460,3552
3.037460,3488
3.038458,4673
3.039462,4000
3.040459,4641
3.041460,4321
3.042458,3680
3.043459,3728
3.044460,3808
3.045461,4785
3.046459,4337
3.047462,4113
3.048462,3616
3.049459,3968
3.050462,5281
3.051460,4545
3.052461,3904
3.053461,4817
3.054461,5041
3.055461,3664
3.056460,3808
3.057480,4048
3.058467,5249
3.059463,3552
3.060459,4305
3.061460,5313
3.062458,4129
3.063460,3488
3.064459,3600
3.065460,4097
3.066462,5041
3.067460,4113
3.068461,3504
3.069460,4753
3.070460,4449
3.071461,4897
3.072460,4129
3.073461,3712
3.074460,3824
3.075459,3792
3.076459,3872
3.077460,3616
3.078460,3552
3.079459,4097
3.080462,5281
3.081460,4113
3.082461,3504
3.083461,5297
3.084461,4097
3.085461,3760
3.086461,4353
3.087460,4417
3.088462,4273
3.089458,3808
3.090460,5073
3.091460,4961
3.092459,4241
3.093460,4321
3.094458,5361
3.095459,4913
3.096458,3888
3.097459,3744
3.098462,3776
3.099461,4401
3.100459,3808
3.101461,4369
3.102458,4481
3.103460,4897
3.104460,4401
3.105458,3888
3.106463,3248
3.107459,4113
3.108460,5089
3.109461,4321
3.110460,4129
3.111460,3616
3.112460,3792
3.113461,4369
3.114458,4064
3.115460,3936
3.116460,5393
3.117462,3280
3.118460,3744
3.119461,5169
3.120460,5409
3.121475,4689
3.122466,3232
3.123461,4048
3.124460,4481
3.125461,4193
3.126460,4064
3.127461,3408
3.128461,4625
3.129460,4080
3.130460,5009
3.131459,4321
3.132459,5281
3.133460,5025
3.134458,3728
3.135460,5137
3.136459,4177
3.137459,3680
3.138461,3888
3.139461,3776
3.140458,3600
3.141460,3600
3.142460,4337
3.143461,3888
3.144461,4497
3.145459,4497
3.146460,5281
3.147461,5217
3.148460,3728
3.149459,3712
3.150460,3904
3.151462,4161
3.152460,4273
3.153462,4080
3.154458,4064
3.155461,3712
3.156460,4241
3.157460,3536
3.158458,3728
3.159460,6785
3.160460,5553
3.161460,3856
3.162460,3680
3.163460,5393
3.164460,3760
3.165460,4064
3.166459,4993
3.167460,3920
3.168461,4241
3.169458,3968
3.170461,4657
3.171461,4177
3.172461,4193
3.173459,4064
3.174460,3936
3.175460,3840
3.176460,3936
3.177458,4097
3.178460,3904
3.179460,5105
3.180462,4417
3.181460,3792
3.182460,3904
3.183460,4161
3.184460,4337
3.185475,4897
3.186469,4177
3.187461,3888
3.188460,3632
3.297776,4321
3.298630,4577
3.299248,4929
3.299852,4369
3.300440,3680
3.301098,4177
3.301695,4080
3.302280,5009
3.302879,6193
3.303495,5713
3.304088,4929
3.304686,4080
3.305281,5441
3.305878,5713
3.306478,4929
3.307076,4705
3.307678,4433
3.308290,3264
3.308892,3792
3.309493,3824
3.310460,3616
3.311459,4641
3.312459,3776
3.313480,4545
3.314465,4609
3.315463,4609
3.316462,3584
3.317462,4497
3.318460,4705
3.319461,4705
3.320461,5041
3.321462,5041
3.322460,4016
3.323460,4449
3.324462,4305
3.325460,3840
3.326460,4497
3.327462,5969
3.328462,4016
3.329458,4273
3.330461,3632
3.331460,3968
3.332460,5681
3.333460,4433
3.334460,3664
3.335460,3904
3.336460,3968
3.337459,5569
3.338459,6465
3.339459,6481
3.340462,5153
3.341460,4753
3.342460,4193
3.343460,3920
3.344459,4929
3.345461,3840
3.346460,3584
3.347460,5857
3.348461,4929
3.349459,6369
3.350458,4513
3.351460,3760
3.352459,4161
3.353461,5521
3.354462,4801
3.355461,4161
3.356461,4385
3.357461,4529
3.358461,3584
3.359461,3840
3.360460,3808
3.361462,4048
3.362459,4113
3.363462,4241
3.364460,4609
3.365460,5393
3.366458,4993
3.367460,4289
3.368462,3904
3.369460,3712
3.370460,4064
3.371462,5137
3.372460,4129
3.373461,3840
3.374460,3792
3.375459,4785
3.376460,4064
3.377473,4305
3.378464,3680
3.379461,3744
3.380460,3488
3.381459,3696
3.382460,5553
3.383462,5425
3.384460,4193
3.385458,3840
3.386461,6753
3.387461,6433
3.388459,5073
3.389462,3712
3.390459,4993
3.391461,5249
3.392459,4561
3.393461,3728
3.394458,4961
3.395459,4225
3.396461,3776
3.397460,3792
3.398460,4032
3.399460,4129
3.400459,5761
3.401462,3968
3.402459,4449
3.403460,4865
3.404461,4689
3.405459,4433
3.406460,4225
3.407459,3920
3.408460,4689
3.409462,4353
3.410460,4401
3.411462,3920
3.412460,4225
3.413460,4129
3.414460,4769
3.415463,4881
3.416461,3808
3.417462,5857
3.418460,3968
3.419460,5153
3.420459,4993
3.421459,4497
3.422462,3984
3.423459,4080
3.424460,3888
3.425461,3808
3.426459,4177
3.427462,3952
3.428459,4129
3.429459,3840
3.430462,4016
3.431460,4913
3.432460,4113
3.433459,3840
3.434462,3968
3.435458,4321
3.436461,4401
3.437462,4529
3.438460,3792
3.439458,4497
3.440461,4481
3.441479,6497
3.442465,5137
3.443463,4769
3.444461,4016
3.445458,4433
3.446462,4625
3.447460,4048
3.448462,3936
3.449458,3920
3.450459,4048
3.451460,4497
3.452460,4209
3.453461,4785
3.454461,4097
3.455461,4497
3.456460,3616
3.457459,4064
3.458462,4353
3.459459,4113
3.460462,3488
3.461459,3936
3.462461,3904
3.463460,4481
3.464460,4881
3.465460,4449
3.466460,4193
3.467460,4529
3.468461,5713
3.469461,4048
3.470460,3856
3.471461,4257
3.472460,3984
3.473458,3808
3.474460,4305
3.475460,3920
3.476459,4577
3.477460,4257
3.478458,5009
3.479461,4305
3.480459,3584
3.481460,4048
3.482459,4273
3.483460,4353
3.484460,3664
3.485460,4193
3.486460,5089
3.487461,5073
3.488459,4064
3.489462,3648
3.649743,4833
3.650766,3856
3.651559,4737
3.652316,6289
3.653073,4625
3.653900,3168
3.654656,4193
3.655407,5281
3.656166,4657
3.656939,4064
3.657697,3600
3.658456,5121
3.659212,6913
3.659970,3808
3.660729,4385
3.661487,4080
3.662243,6657
3.663031,4801
3.663794,4193
3.664558,4321
3.665322,4449
3.666086,4609
3.666851,4080
3.667623,3280
3.668390,3648
3.669159,4577
3.669928,4881
3.670697,4529
3.671469,4032
3.672234,4000
3.673002,4289
3.673775,4257
3.674546,4401
3.675458,4529
3.676461,4064
3.677459,4449
3.678462,4032
3.679459,4353
3.680461,4609
3.681459,4145
3.682460,6497
3.683463,3968
3.684460,4881
3.685460,7969
3.686461,4369
3.687460,4801
3.688460,4225
3.689459,3968
3.690462,3744
3.691462,4481
3.692458,5105
3.693461,4113
3.694460,4289
3.695460,4801
3.696459,4369
3.697482,5025
3.698462,4689
3.699459,6209
3.700461,3888
3.701463,3936
3.702460,6593
3.703460,4337
3.704459,4273
3.705460,4032
3.706460,4289
3.716737,4401
3.716963,4417
3.717172,4721
3.717378,5057
3.717589,4433
3.717797,4817
3.718003,5537
3.718211,6017
3.718427,5009
3.718641,4449
3.719461,4321
3.720461,4145
3.721459,4000
3.722459,3936
3.723460,4529
3.724459,5841
3.725459,4529
3.726460,4193
3.727460,4032
3.728461,5473
3.729461,4913
3.730458,4833
3.731459,3760
3.732460,4129
3.733460,5393
3.734458,4705
3.735462,4497
3.736460,3920
3.737460,4064
3.738460,5009
3.739459,4609
3.740462,4113
3.741460,4000
3.742461,3776
3.743460,5713
3.744460,6065
3.745461,4064
3.746460,4401
3.747458,4529
3.748460,4080
3.749459,4353
3.750462,11714
3.751460,4225
3.752460,4433
3.753461,4529
3.754463,4625
3.755460,5169
3.756460,4064
3.757462,4577
3.758459,4881
3.759463,3776
3.760460,4064
3.761479,4465
3.762464,5201
3.763461,4769
3.764459,4801
3.765463,4545
3.766461,4433
3.767460,4401
3.768460,4048
3.769460,4801
3.770460,4161
3.771460,4881
3.772458,4257
3.773462,4097
3.774460,5185
3.775460,4673
3.776461,4129
3.777460,4705
3.778460,4048
3.779459,4577
3.780462,5153
3.781459,4193
3.782460,5281
3.783462,4177
3.784459,7057
3.785460,5633
3.786460,4161
3.787460,4593
3.788459,4225
3.789459,4513
3.790460,3968
3.791460,4097
3.792458,5009
3.793462,6993
3.794460,4753
3.795462,4785
3.796461,4177
3.797459,4193
3.798458,4817
3.799462,5313
3.800462,3888
3.801462,4129
3.802459,4881
3.803460,4769
3.804458,4529
3.805460,4177
3.806460,4080
3.807462,4321
3.808460,4225
3.809459,5345
3.810460,6625
3.811460,4865
3.812458,4401
3.813460,4257
3.814460,6065
3.815460,4833
3.816459,3968
3.817460,4273
3.818460,4481
3.819458,4753
3.820460,5185
3.821462,4577
3.822459,5137
3.823461,4080
3.824460,3936
3.825478,4881
3.826469,4225
3.827464,3904
3.828460,4032
3.829464,3824
3.830461,4945
3.831460,4000
3.832462,4657
3.833461,3776
3.834460,3920
3.835461,4913
3.836460,4753
3.837460,5009
3.838460,4529
3.839460,4241
3.840460,4705
3.841462,7089
3.842459,4785
3.843460,4417
4.036931,4385
4.037537,4561
4.037913,4097
4.038261,4705
4.038605,4881
4.039011,4305
4.039345,3648
4.039685,4193
4.040028,4273
4.040386,5137
4.040727,4913
4.041062,5809
4.041460,6145
4.042460,4417
4.043461,5169
4.044462,4353
4.045462,4401
4.046461,5105
4.047459,4689
4.048460,4833
4.049461,5073
4.050459,4369
4.051460,5169
4.052460,4225
4.053461,4577
4.054460,5057
4.055460,4337
4.056460,4913
4.057459,4337
4.058462,4032
4.059459,3664
4.060460,4753
4.061460,5905
4.062461,4257
4.063460,4241
4.064460,5329
4.065462,4689
4.066458,4625
4.067462,4529
4.068460,4385
4.069458,4048
4.070460,4481
4.071459,6801
4.072460,4641
4.073458,4145
4.074462,5697
4.075462,4273
4.076461,4817
4.077460,5409
4.078460,4449
4.079461,4513
4.080461,4929
4.081478,4064
4.082462,4369
4.083459,4641
4.084460,4625
4.085459,4145
4.086462,4993
4.087462,4545
4.088460,4273
4.089460,5249
4.090460,4465
4.091459,4048
4.092461,4353
4.093459,5041
4.094458,5009
4.095460,4000
4.096459,4145
4.097462,5505
4.098461,6177
4.099460,4481
4.100459,4161
4.101461,4417
4.102460,5137
4.103461,5281
4.104461,4225
4.105461,4129
4.106461,4705
4.107461,5121
4.108462,4385
4.109458,4801
4.110462,4657
4.111462,4273
4.112460,6401
4.113462,5729
4.114461,5073
4.115459,4113
4.116460,4913
4.117459,4321
4.118460,4449
4.119462,4849
4.120461,4497
4.121460,4561
4.122461,5217
4.123462,6577
4.124458,4689
4.125459,4305
4.126457,4929
4.127458,5761
4.128460,4641
4.129460,4449
4.130461,4401
4.131459,5905
4.132461,5137
4.133459,5265
4.134460,5521
4.135460,4817
4.136460,4225
4.137460,4145
4.138460,4785
4.139458,5089
4.140460,4401
4.141460,4321
4.142460,4177
4.143459,4993
4.144460,4289
4.145480,4016
4.146471,4481
4.147462,4273
4.148460,5009
4.149460,5009
4.150462,4513
4.151463,4801
4.152460,4945
4.153459,5553
4.154460,5121
4.155460,4016
4.156461,4705
4.157462,4481
4.158463,4673
4.159461,4817
4.160462,4737
4.161461,4737
4.162459,4273
4.163460,4641
4.164458,5313
4.165460,4401
4.166461,4209
4.167459,4897
4.168460,4849
4.169462,4321
4.170461,4353
4.171461,3904
4.172460,5265
4.173458,4257
4.174460,6353
4.175459,4321
4.176462,4289
4.177458,4337
4.178460,4145
4.179462,5985
4.180460,5313
4.181460,4641
4.182462,4545
4.183460,4529
4.184459,5169
4.185459,5505
4.186460,5153
4.187462,4032
4.188460,4113
4.189460,6673
4.190459,4289
4.191460,5121
4.192460,5169
4.193460,4401
4.194460,6033
4.195460,4273
4.196458,4945
4.197461,4305
4.198459,4513
4.199462,4417
4.200462,5793
4.201459,4481
4.202461,4241
4.203462,4545
4.204458,4241
4.205461,4561
4.206461,5537
4.207459,6017
4.208460,4865
4.209477,3888
4.210470,4817
4.211463,4945
4.212461,4113
4.213461,4433
4.214459,4433
4.215459,4401
4.216461,4833
4.217461,6913
4.218461,4945
4.219461,3744
4.220458,5313
4.221459,4961
4.222460,4481
4.223460,4609
4.224460,4064
4.225461,4657
4.226460,4737
4.227461,4225
4.228459,4913
4.340078,3936
4.340833,3616
4.341353,5009
4.341860,5377
4.342348,4481
4.342911,4833
4.343399,5121
4.343890,5297
4.344378,4305
4.344896,3872
4.345387,4273
4.345884,4497
4.346378,3632
4.346875,4769
4.347371,4785
4.347872,4064
4.348461,4257
4.349459,5169
4.350460,5793
4.351460,5121
4.352459,4609
4.353460,4161
4.354460,4945
4.355459,4961
4.356461,4305
4.357458,4641
4.358461,4753
4.359459,4801
4.360460,4433
4.361460,3968
4.362459,4321
4.363458,3536
4.364461,4961
4.365460,6449
4.366459,4673
4.367459,4064
4.368459,4129
4.369460,4353
4.370460,4929
4.371460,4849
4.372460,4961
4.373461,6561
4.374461,5041
4.375461,5601
4.376461,6081
4.377461,5169
4.378462,5409
4.379460,3920
4.380461,4417
4.381460,4129
4.382460,5633
4.383459,4465
4.384459,4129
4.385460,4497
4.386460,5297
4.387462,4577
4.388459,4449
4.389461,5681
4.390460,4769
4.391460,5009
4.392458,4177
4.393461,4337
4.394458,5153
4.395460,4961
4.396460,4257
4.397462,5297
4.398459,4289
4.399460,5537
4.400481,4513
4.401467,4513
4.402464,4369
4.403465,4497
4.404461,3936
4.405461,4593
4.406460,4977
4.407456,3648
4.408458,3856
4.409460,4705
4.410461,5057
4.411462,6337
4.412460,6529
4.413461,6225
4.414460,5297
4.415461,4673
4.416461,4401
4.417459,5137
4.418461,4881
4.419458,3648
4.420460,4561
4.421457,4129
4.422461,4064
4.423461,3968
4.424458,5393
4.425459,5201
4.426459,4113
4.427461,3376
4.428462,4769
4.429462,5889
4.430461,4289
4.431458,5441
4.432460,4561
4.433461,4497
4.434458,3840
4.435460,4385
4.436461,4449
4.437458,5441
4.438460,4273
4.439460,4737
4.440461,4145
4.441459,5137
4.442462,4513
4.443463,4289
4.444460,4417
4.445460,4753
4.446461,4577
4.447460,4417
4.448458,4689
4.449460,4561
4.450461,5569
4.451460,4833
4.452461,4641
4.453462,4449
4.454461,4161
4.455458,3536
4.456461,3936
4.457460,4529
4.458460,5377
4.459462,4097
4.460460,4353
4.461460,3856
4.462461,5297
4.463459,4401
4.464481,3456
4.465469,4305
4.466461,3984
4.467460,4769
4.468460,4561
4.469461,5937
4.470461,6401
4.471460,4641
4.472461,4385
4.473460,5329
4.474460,4177
4.475460,3872
4.476458,3664
4.477459,4593
4.478460,5649
4.479460,5249
4.480459,4097
4.481461,4705
4.482461,4401
4.483460,4145
4.484461,4705
4.485461,4481
4.486460,4881
4.487462,5377
4.488461,4881
4.489458,4145
4.490460,4064
4.491460,3808
4.492460,4385
4.493462,6545
4.494462,6625
4.495460,4769
4.496460,4289
4.497461,4113
4.498458,3648
4.499460,4529
4.500459,3840
4.501463,3888
4.502460,4801
4.503462,4673
4.504462,8097
4.505462,5313
4.506459,6289
4.507459,5265
4.508458,4209
4.509460,4305
4.510459,3632
4.511461,5169
4.512458,3376
4.513460,5713
4.514461,5841
4.515460,4000
4.516458,3936
4.517459,4064
4.518459,3984
4.519460,5169
4.520460,4705
4.521460,4849
4.522461,4497
4.523458,3648
4.524460,3808
4.525460,4369
4.526460,4881
4.527462,4929
4.528535,3920
4.529466,4241
4.530462,5793
4.531460,4289
4.692272,5201
4.693193,4817
4.693866,4849
4.694518,4513
4.695158,3328
4.695872,8274
4.696518,5409
4.697159,7297
4.697811,5041
4.698476,3872
4.699120,5697
4.699768,4433
4.700408,3376
4.701055,3408
4.701701,3888
4.702344,5617
4.702990,5137
4.703661,5281
4.704306,4401
4.704956,3424
4.705610,3552
4.706262,4625
4.706917,6257
4.707572,5137
4.708460,3360
4.709459,3536
4.710458,3648
4.711460,3488
4.712461,5409
4.713460,4561
4.714459,5169
4.715461,4449
4.716459,4497
4.717460,4000
4.718460,3216
4.719461,3088
4.720460,4113
4.721479,4545
4.722468,4561
4.723463,4369
4.724459,3760
4.725461,5313
4.726462,5601
4.727460,3296
4.728460,5969
4.729462,4721
4.730460,4593
4.731462,3616
4.732460,3488
4.733459,4048
4.734460,4129
4.735460,3920
4.736459,4032
4.737462,4129
4.738460,4097
4.739459,3776
4.740462,3392
4.741461,3472
4.742461,3584
4.743463,3888
4.744459,4048
4.745463,5233
4.746459,3408
4.747460,4513
4.748460,4417
4.749461,4545
4.750460,3456
4.751460,3616
4.752460,3888
4.753460,4305
4.754458,3360
4.755460,3328
4.756460,3776
4.757460,4401
4.758460,5697
4.759461,4593
4.760458,4032
4.761460,3472
4.762460,5105
4.763460,3728
4.764459,3776
4.765460,3456
4.766461,6273
4.767460,5601
4.768460,4161
4.769459,4145
4.770462,3712
4.771461,3104
4.772459,3280
4.773460,3408
4.774460,4417
4.775460,5857
4.776459,6113
4.777460,4145
4.778462,3632
4.779460,3440
4.780461,3472
4.781461,3456
4.782460,5137
4.783462,5697
4.784462,3248
4.785476,6449
4.786466,6545
4.787464,4769
4.788461,3760
4.789462,4177
4.790463,4145
4.791459,4417
4.792458,4016
4.793460,3632
4.794460,3584
4.795460,3984
4.796460,4032
4.797459,4817
4.798462,4129
4.799460,4048
4.800460,3088
4.801460,3184
4.802461,3440
4.803462,6049
4.804460,4833
4.805459,3744
4.806461,3600
4.807461,5025
4.808458,5553
4.809460,4897
4.810459,3344
4.811460,3552
4.812461,3968
4.813460,3008
4.814461,3296
4.815460,3648
4.816460,6977
4.817458,6193
4.818461,3488
4.819458,3680
4.820460,4145
4.821461,4561
4.822462,3712
4.823459,3360
4.824460,5377
4.825460,3904
4.826459,4032
4.827461,4497
4.828460,3840
4.829462,4273
4.830460,3712
4.831460,3072
4.832461,3104
4.833461,4657
4.834459,4241
4.835459,4417
4.836461,3536
4.837460,5729
4.838460,3552
4.839462,3632
4.840462,3168
4.841458,4385
4.842462,4657
4.843461,4593
4.844459,4209
4.845460,6369
4.846460,3216
4.847459,3856
4.848462,4433
4.849473,5169
4.850463,4657
4.851461,3680
4.852459,3504
4.853460,3504
4.854460,4225
4.855459,5777
4.856458,4209
4.857459,3648
4.858462,4097
4.859459,3824
4.860461,3616
4.861460,3632
4.862458,3392
4.863460,3584
4.864460,4064
4.865462,4241
4.866460,3280
4.867460,3744
4.868460,6289
4.869459,4113
4.870462,3936
4.871462,5121
4.872458,4849
4.873459,3504
4.874460,3536
4.875460,3536
4.876460,5281
4.877460,3568
4.878462,3488
4.879459,3248
4.880460,4241
4.881460,4609
4.882460,4353
4.883461,3808
5.036242,6673
5.038301,5025
5.039283,3936
5.040136,3888
5.041113,3792
5.042008,4849
5.042822,4913
5.043635,3712
5.044446,4113
5.045271,4289
5.046081,3792
5.046898,4417
5.047711,3744
5.048521,5185
5.049326,6417
5.050136,4545
5.057476,5121
5.057717,5809
5.057929,4929
5.058134,4385
5.058341,4849
5.058556,4113
5.058772,5297
5.058985,6257
5.059199,8738
5.059458,6849
5.060460,4545
5.061459,4064
5.062460,3424
5.063460,3872
5.064460,3312
5.065461,3264
5.066461,3728
5.067460,5345
5.068460,3680
5.069459,3408
5.070461,3616
5.071462,7009
5.072461,4481
5.073459,3856
5.074459,3968
5.075461,3760
5.076459,3984
5.077462,4273
5.078461,3552
5.079460,4657
5.080460,3760
5.081460,3136
5.082460,5137
5.083460,4177
5.084461,4177
5.085459,3456
5.086460,3552
5.087461,3488
5.088460,5201
5.089460,3936
5.090458,3456
5.091462,3792
5.092460,4609
5.093459,5681
5.094459,3968
5.095460,3728
5.096462,4353
5.097460,3840
5.098460,4129
5.099461,4769
5.100462,3920
5.101462,3472
5.102460,3552
5.103461,3344
5.104461,4689
5.105478,4545
5.106465,3984
5.107462,2976
5.108459,6017
5.109460,4577
5.110462,3776
5.111457,3440
5.112460,4929
5.113462,4577
5.114462,4545
5.115460,3840
5.116459,3824
5.117460,4577
5.118460,3552
5.119460,3776
5.120460,3376
5.121460,6225
5.122460,5441
5.123461,4129
5.124460,4193
5.125461,3744
5.126461,3472
5.127461,3824
5.128460,3840
5.129459,3504
5.130461,3376
5.131458,3616
5.132461,5825
5.133462,4945
5.134460,3744
5.135461,3264
5.136458,4497
5.137459,4241
5.138461,3552
5.139458,4161
5.140461,3904
5.141459,4353
5.142460,5345
5.143462,4129
5.144460,3744
5.145460,3936
5.146459,3856
5.147460,3712
5.148461,3536
5.149459,3552
5.150460,5137
5.151462,3584
5.152461,3408
5.153461,4337
5.154459,4369
5.155460,6193
5.156460,5137
5.157460,3616
5.158461,5329
5.159459,4577
5.160460,3008
5.161460,4289
5.162460,3776
5.163461,4321
5.164459,3552
5.165463,4705
5.166458,5665
5.167459,3904
5.168459,3424
5.169475,4897
5.170463,5153
5.171461,3760
5.172463,7313
5.173462,4129
5.174460,3568
5.175460,4881
5.176461,3456
5.177462,3744
5.178460,5361
5.179460,4353
5.180460,3424
5.181460,3824
5.182461,3888
5.183460,4193
5.184460,4016
5.185460,3920
5.186460,4048
5.187458,3920
5.188460,5425
5.189462,3984
5.190459,3616
5.191460,4000
5.192462,4241
5.193462,3520
5.194460,3904
5.195460,4433
5.196460,4129
5.197458,3808
5.198461,3264
5.199458,3360
5.200458,5057
5.201462,3760
5.202461,3936
5.203460,4016
5.204459,3664
5.205461,3712
5.206460,4113
5.207458,3648
5.208461,3808
5.209460,3616
5.210458,4273
5.211460,4305
5.212460,3808
5.213460,4048
5.214459,3856
5.215459,8177
5.216461,6561
5.217460,3488
5.218458,3680
5.219460,3984
5.220459,3504
5.221459,3712
5.222460,5569
5.223460,4929
5.224460,3296
5.225459,3520
5.226462,4561
5.227460,3984
5.228459,3824
5.229460,4801
5.230462,3568
5.231462,5217
5.232460,3424
5.233474,4193
5.342925,4064
5.343553,4385
5.343936,3872
5.344304,4305
5.344678,4064
5.345109,3664
5.345476,3936
5.345842,3264
5.346209,3360
5.346594,3968
5.346958,3520
5.347322,4657
5.347696,5681
5.348460,4657
5.349461,4064
5.350460,4753
5.351460,3920
5.352459,3552
5.353461,3632
5.354462,3856
5.355460,4673
5.356461,5089
5.357461,3760
5.358462,3872
5.359462,3664
5.360461,4305
5.361479,4353
5.362468,4000
5.363461,3856
5.364463,4641
5.365458,4177
5.366459,4080
5.367459,5553
5.368461,4097
5.369461,4321
5.370460,3936
5.371459,3760
5.372461,4241
5.373459,4673
5.374461,4016
5.375461,4705
5.376460,4545
5.377460,6017
5.378460,4369
5.379459,3632
5.380461,4449
5.381462,3584
5.382460,3776
5.383462,3808
5.384460,3728
5.385459,3792
5.386460,4145
5.387461,3952
5.388459,3616
5.389458,4321
5.390459,3792
5.391458,3728
5.392460,4705
5.393460,5281
5.394461,4305
5.395460,3744
5.396460,3776
5.397460,3616
5.398460,3744
5.399461,3808
5.400459,4032
5.401459,4785
5.402463,5313
5.403462,4289
5.404461,4032
5.405459,4337
5.406460,4080
5.407460,3856
5.408460,3856
5.409462,3488
5.410462,3424
5.411462,4657
5.412462,4097
5.413459,3712
5.414461,3840
5.415459,3504
5.416462,3904
5.417460,4897
5.418463,4769
5.419460,4433
5.420461,4032
5.421460,3616
5.422461,3248
5.423460,4993
5.424460,4241
5.425478,4225
5.426472,4385
5.427464,3744
5.428460,3408
5.429463,4577
5.430459,4305
5.431461,3872
5.432462,4113
5.433458,4064
5.434460,3680
5.435461,4353
5.436461,4497
5.437461,3424
5.438460,4433
5.439460,6273
5.440459,4000
5.441460,3728
5.442458,5217
5.443459,4865
5.444461,3728
5.445460,3376
5.446461,4048
5.447460,5121
5.448460,3632
5.449460,4689
5.450460,4321
5.451459,4433
5.452460,3840
5.453460,3552
5.454462,4129
5.455460,4048
5.456459,4865
5.457462,4177
5.458462,3824
5.459460,3920
5.460461,4257
5.461460,3504
5.462461,4529
5.463461,4193
5.464461,3744
5.465461,3712
5.466460,4225
5.467460,4385
5.468460,4449
5.469462,4289
5.470458,4241
5.471459,3680
5.472461,3728
5.473460,5441
5.474460,4145
5.475460,4113
5.476462,3952
5.477462,4561
5.478460,4225
5.479458,3664
5.480462,3664
5.481460,3488
5.482461,3344
5.483462,3808
5.484461,4305
5.485460,3520
5.486459,5329
5.487461,4961
5.488462,3664
5.489474,4561
5.490461,4129
5.491458,4385
5.492462,5169
5.493458,4064
5.494463,3536
5.495458,4177
5.496461,4929
5.497459,3424
5.498459,4016
5.499462,3744
5.500461,4609
5.501458,4785
5.502460,4241
5.503461,3552
5.504460,3536
5.505462,3488
5.506460,4497
5.507460,4465
5.508462,4048
5.509458,3664
5.510459,3920
5.511460,3712
5.512460,5521
5.513460,4481
5.514461,5025
5.515461,4080
5.516459,4193
5.517460,4433
5.518459,3872
5.519459,4273
5.520461,4305
5.521459,3856
5.522458,4145
5.523462,3840
5.524459,3744
5.525459,3824
5.526462,4241
5.527460,3808
5.528460,3616
5.529462,3872
5.530459,4849
5.531461,4353
5.532460,4225
5.533461,3968
5.534460,4145
5.695232,5649
5.696017,3904
5.696569,3216
5.697092,3680
5.697618,4641
5.698200,4945
5.698721,3472
5.699239,3328
5.699765,3488
5.700298,4097
5.700822,3792
5.701342,3968
5.701870,3712
5.702392,3856
5.702916,4064
5.703439,4513
5.703962,4625
5.704516,4561
5.705461,4369
5.706462,4097
5.707460,4032
5.708460,3856
5.709459,4401
5.710460,3856
5.711460,4305
5.712462,4417
5.713460,4097
5.714460,3872
5.715459,3504
5.716460,4000
5.717459,4481
5.718459,3776
5.719460,4225
5.720459,4129
5.721460,4145
5.722459,3840
5.723462,4305
5.724461,3664
5.725459,4865
5.726460,3888
5.727460,3920
5.728463,3728
5.729460,3728
5.730461,3536
5.731461,3840
5.732462,3776
5.733462,3824
5.734459,4225
5.735460,3840
5.736460,3936
5.737461,4241
5.738462,5665
5.739460,5025
5.740458,4497
5.741460,4545
5.742462,4913
5.743459,4497
5.744461,3952
5.745483,4080
5.746466,3648
5.747460,4289
5.748462,4577
5.749459,3872
5.750458,4193
5.751462,4257
5.752460,4129
5.753460,3904
5.754460,3872
5.755459,4849
5.756460,3680
5.757459,3776
5.758460,4609
5.759460,3712
5.760459,3792
5.761460,6705
5.762460,4305
5.763460,4961
5.764459,3872
5.765461,3520
5.766462,4225
5.767460,3952
5.768460,3840
5.769460,3984
5.770460,3920
5.771460,4385
5.772461,3728
5.773460,4161
5.774460,4161
5.775460,4625
5.776461,4321
5.777458,4113
5.778460,4257
5.779458,3632
5.780460,4385
5.781460,4689
5.782460,4177
5.783461,3760
5.784460,3648
5.785460,3904
5.786461,4417
5.787460,4785
5.788460,3616
5.789460,4225
5.790461,4097
5.791461,3760
5.792461,3808
5.793460,3984
5.794458,3600
5.795461,4625
5.796458,4625
5.797461,4737
5.798461,4993
5.799461,4929
5.800462,4000
5.801460,3872
5.802461,3984
5.803459,4673
5.804458,4113
5.805460,3792
5.806460,3792
5.807462,3504
5.808462,3664
5.809476,4048
5.810461,3952
5.811461,3552
5.812459,4161
5.813461,4321
5.814459,3872
5.815460,4353
5.816462,5729
5.817461,5169
5.818460,4113
5.819462,4145
5.820461,3840
5.821461,3632
5.822459,4353
5.823462,4321
5.824458,4080
5.825460,3744
5.826460,3584
5.827462,3952
5.828458,3936
5.829462,4273
5.830462,4289
5.831460,4257
5.832459,5185
5.833459,4048
5.834460,3584
5.835457,5553
5.836462,3456
5.837460,3872
5.838462,3888
5.839461,4577
5.840461,4016
5.841461,4545
5.842461,4593
5.843462,3984
5.844462,3632
5.845461,3888
5.846459,4593
5.847460,4481
5.848461,4401
5.849460,3968
5.850460,3792
5.851460,4401
5.852462,5201
5.853461,4545
5.854460,4032
5.855459,3888
5.856460,4113
5.857462,3744
5.858459,3904
5.859461,3584
5.860461,3360
5.861460,4417
5.862458,3968
5.863460,4032
5.864461,4241
5.865459,4657
5.866462,4080
5.867459,4913
5.868460,4305
5.869459,4609
5.870459,4145
5.871460,3824
5.872459,3856
5.873477,4577
5.874465,3632
5.875462,3888
5.876460,4113
5.877460,5153
5.878461,4064
5.879462,3840
5.880460,3872
5.881460,4161
5.882460,3584
5.883461,4785
5.884458,4417
5.885460,3760
5.886463,3792
6.047281,4817
6.048238,4177
6.048941,3936
6.049623,4529
6.050294,4865
6.051036,4064
6.051712,4064
6.052382,4497
6.053059,5457
6.053754,5361
6.054428,4353
6.055101,5281
6.055778,4433
6.056451,4321
6.057129,5009
6.057811,4945
6.058489,6241
6.059185,5697
6.059868,4241
6.060547,3440
6.061223,3632
6.061905,4833
6.062585,4225
6.063263,4129
6.063946,3840
6.064631,4657
6.065483,4369
6.066465,3552
6.067461,4113
6.068459,4657
6.069460,4753
6.070463,3984
6.071461,4064
6.072460,4097
6.073459,5057
6.074460,4689
6.075458,6945
6.076459,5537
6.077461,3984
6.078462,3840
6.079461,4064
6.080460,5809
6.081459,5121
6.082460,4449
6.083458,4064
6.084462,4161
6.085460,4225
6.086461,5153
6.087459,4209
6.088461,5153
6.089459,5777
6.090462,4369
6.091460,5953
6.092460,3808
6.093460,4225
6.094463,4016
6.095459,4241
6.096460,3840
6.097460,4497
6.098461,3712
6.099461,3936
6.100460,6081
6.101460,4497
6.102458,4145
6.103463,3936
6.104461,3552
6.105460,4769
6.106460,4945
6.107460,4705
6.108460,4513
6.109459,4993
6.110461,4016
6.111461,4353
6.112460,4801
6.113461,4833
6.114459,4353
6.115462,4113
6.116461,4529
6.117461,3904
6.118460,4929
6.119461,4113
6.120459,6081
6.121462,6353
6.122460,4241
6.123460,5409
6.124460,5345
6.125459,6033
6.126461,4097
6.127460,6161
6.128478,6081
6.129466,4385
6.130461,4257
6.131459,5041
6.132461,4513
6.133460,4865
6.134460,4417
6.135459,4641
6.136460,4481
6.137460,4385
6.138462,4529
6.139461,4881
6.140457,4929
6.141460,3888
6.142462,4305
6.143461,4289
6.144459,4000
6.145460,5297
6.146460,4449
6.147462,4000
6.148460,3968
6.149463,4689
6.150461,5665
6.151460,5281
6.152458,4097
6.153461,3872
6.154460,6033
6.155460,4817
6.156461,5585
6.157460,5809
6.158462,5041
6.159460,5265
6.160460,6385
6.161462,5969
6.162462,4000
6.163460,4273
6.164460,4209
6.165462,3856
6.166460,3728
6.167459,4337
6.168460,4305
6.169460,5313
6.170461,4897
6.171459,5457
6.172461,5729
6.173460,4673
6.174460,4193
6.175460,4417
6.176461,4769
6.177461,4897
6.178460,5281
6.179460,4177
6.180459,6145
6.181462,4769
6.182461,4032
6.183460,4385
6.184461,4625
6.185459,4097
6.186461,4273
6.187458,4385
6.188460,4177
6.189460,5105
6.190460,4161
6.191461,4113
6.192474,5137
6.193466,4321
6.194461,3888
6.195461,3920
6.196460,4369
6.197459,5201
6.198460,5873
6.199460,5409
6.200460,4193
6.201460,3920
6.202460,4737
6.203460,4641
6.204459,4753
6.205460,4401
6.206460,4945
6.207460,4177
6.208460,4801
6.209461,4257
6.210458,4481
6.211461,4177
6.212460,6689
6.213461,5649
6.214460,5313
6.215458,3968
6.216462,5889
6.217460,4113
6.218462,6049
6.219459,5473
6.220462,4673
6.221462,4177
6.222462,4113
6.223461,4449
6.224460,4289
6.225460,4449
6.226461,5137
6.227462,4161
6.228459,4241
6.229459,6273
6.230461,9074
6.231459,9874
6.232459,4016
6.233458,4289
6.234460,4289
6.235461,4385
6.236460,5233
6.237461,4353
6.238462,4129
6.393528,6577
6.394009,15139
6.394268,15379
6.394511,18036
6.394748,14387
6.395006,10322
6.395242,6577
6.395477,3760
6.395706,3792
6.395960,4385
6.396195,1936
6.396460,4289
6.397460,11954
6.398458,7617
6.399460,9122
6.400463,4289
6.401459,5937
6.402461,6561
6.403460,4353
6.404461,4321
6.405459,4897
6.406460,5889
6.407460,5649
6.408458,10946
6.409461,9426
6.410461,6401
6.411463,4353
6.412461,11650
6.413460,6609
6.414458,5217
6.415460,7249
6.416460,4561
6.417460,4705
6.418460,4897
6.419460,4513
6.420459,6241
6.421461,6385
6.422461,4369
6.423461,4353
6.424460,4945
6.425459,5057
6.426459,4401
6.427462,9522
6.428459,4177
6.429462,6049
6.430459,12883
6.431462,9906
6.432460,5825
6.433460,5089
6.434460,4561
6.435461,5089
6.436460,7233
6.437461,4401
6.438458,4913
6.439460,4705
6.440462,4385
6.441458,6657
6.442461,4529
6.443458,4737
6.444461,5137
6.445461,7585
6.446458,5153
6.447460,9218
6.448592,4833
6.449474,5201
6.450465,5969
6.451460,17620
6.452458,4465
6.453461,8081
6.454460,4849
6.455460,5201
6.456458,4401
6.457461,6321
6.458459,10354
6.459461,4689
6.460461,5441
6.461461,6017
6.462460,5601
6.463459,5537
6.464461,5553
6.465461,8242
6.466461,4609
6.467462,6353
6.468460,4305
6.469461,8177
6.470461,5857
6.471461,11554
6.472462,4113
6.473461,5057
6.474461,6913
6.475462,6433
6.476460,4385
6.477461,7873
6.478460,5201
6.479460,5729
6.480463,4321
6.481459,6289
6.482461,5361
6.483460,8177
6.484460,9186
6.485460,5953
6.486460,6657
6.487458,4609
6.488461,11282
6.489460,22997
6.490460,8354
6.491459,14339
6.492460,16724
6.493462,5137
6.494460,7729
6.495459,4481
6.496460,5681
6.497460,6433
6.498462,7425
6.499460,9234
6.500459,24870
6.501459,6865
6.502460,18564
6.503460,11170
6.504459,5585
6.505461,7057
6.506458,6321
6.507463,4769
6.508460,4977
6.509462,11906
6.510460,5201
6.511460,6705
6.512459,4481
6.513480,9186
6.514461,5537
6.515460,14483
6.516461,6817
6.517461,5697
6.518459,7713
6.519458,4657
6.520458,18244
6.521460,10466
6.522461,5185
6.523461,9986
6.524461,16580
6.525460,7297
6.526460,5729
6.527461,9938
6.528459,19572
6.529462,10898
6.530460,7745
6.531460,6961
6.532460,9234
6.533458,6497
6.534461,5169
6.535461,8770
6.536462,4609
6.537460,4865
6.538460,4993
6.539459,26454
6.540461,8754
6.541461,26326
6.542461,6801
6.543459,4913
6.544461,4513
6.545461,5313
6.546459,4673
6.547461,5121
6.548460,10130
6.549460,8242
6.550461,5121
6.551460,5969
6.552460,4577
6.553458,10610
6.554460,5297
6.555460,3920
6.556459,5665
6.557459,8690
6.558458,4225
6.559462,10322
6.560459,6737
6.561460,6881
6.562461,4641
6.563461,4417
6.564459,5297
6.565460,9282
6.566460,7297
6.567459,4417
6.568460,4673
6.569461,4497
6.570459,4609
6.571459,6865
6.572460,13459
6.573460,9090
6.574462,7569
6.575462,8113
6.576461,7953
6.577474,17972
6.578467,4289
6.579463,6113
6.580460,13267
6.581459,19780
6.582458,4289
6.583462,9778
6.584462,8194
6.690838,6689
6.691479,5265
6.691895,5409
6.692287,5345
6.692678,4913
6.693126,3888
6.693514,4625
6.693903,3520
6.694288,6017
6.694694,11842
6.695080,9698
6.695474,9554
6.695863,9362
6.696460,4497
6.697458,7665
6.698460,4737
6.699459,6913
6.700458,5265
6.701461,7105
6.702460,5441
6.703460,13779
6.704462,6097
6.705484,7633
6.706468,13667
6.707463,9698
6.708461,13203
6.709459,14147
6.710461,27014
6.711459,7057
6.712458,5665
6.713458,20533
6.714463,5761
6.715460,15971
6.716460,17812
6.717459,5729
6.718460,36440
6.719463,16708
6.720460,5905
6.721459,28502
6.722460,18788
6.723462,11362
6.724460,26454
6.725462,7329
6.726460,20148
6.727460,35560
6.728462,6945
6.729461,27398
6.730461,8210
6.731461,6113
6.732459,4849
6.733460,13219
6.734460,9010
6.735460,6705
6.736459,4209
6.737460,9954
6.738460,20084
6.739459,17172
6.740462,40169
6.741461,25382
6.742460,5121
6.743460,8866
6.744460,27142
6.745460,12851
6.746461,4545
6.747462,5121
6.748461,8177
6.749461,7569
6.750458,32055
6.751460,15811
6.752459,29175
6.753460,7489
6.754459,14611
6.755460,9794
6.756460,5073
6.757460,25622
6.758462,18100
6.759460,14547
6.760460,6001
6.761459,7889
6.762461,15443
6.763460,7569
6.764461,5313
6.765461,5185
6.766460,5745
6.767460,6945
6.768476,4145
6.769466,16195
6.770464,5217
6.771461,7393
6.772459,17876
6.773463,8001
6.774459,28294
6.775460,4833
6.776461,13795
6.777459,23573
6.778461,9570
6.779458,4737
6.780461,9874
6.781460,14435
6.782457,11714
6.783460,16307
6.784460,9458
6.785458,19844
6.786459,18356
6.787459,4497
6.788460,6673
6.789460,11986
6.790462,5281
6.791460,4977
6.792460,24277
6.793458,10274
6.794462,20629
6.795461,7217
6.796460,8834
6.797460,4593
6.798460,8177
6.799460,10194
6.800462,13955
6.801460,5169
6.802462,11074
6.803458,16275
6.804460,5937
6.805460,9122
6.806460,10082
6.807462,29895
6.808459,6865
6.809460,24758
6.810460,44554
6.811459,5665
6.812459,4545
6.813459,14371
6.814461,7473
6.815460,15107
6.816460,15011
6.817461,10498
6.818459,17220
6.819463,14723
6.820461,24517
6.821460,5153
6.822460,7457
6.823461,15043
6.824460,5041
6.825458,7361
6.826461,7761
6.827460,3808
6.828462,12867
6.829458,12931
6.830460,4865
6.831460,28871
6.832475,6417
6.833464,23221
6.834462,6673
6.835460,8546
6.836460,4785
6.837458,6081
6.838461,11602
6.839460,5521
6.840461,5665
6.841457,8498
6.842460,8354
6.843459,16900
6.844461,7377
6.845461,5521
6.846460,8001
6.847462,15427
6.848458,9890
6.849459,5169
6.850459,8177
6.851459,5377
6.852461,14579
6.853460,18500
6.854462,37833
6.855460,23189
6.856460,9442
6.857459,10850
6.858459,4353
6.859460,3776
6.860460,13667
6.861462,9858
6.862460,17076
6.863460,23045
6.864458,18852
6.865460,5473
6.866461,28502
6.867462,9762
6.868460,5073
6.869462,10434
6.870460,4993
6.871461,38217
6.872461,7201
6.873459,5281
6.874460,34120
6.875461,15651
6.876461,26358
6.877460,11474
6.878460,30247
6.879460,6481
6.880463,10946
6.881461,5809
6.882459,30183
7.036456,8338
7.037253,14403
7.037830,12723
7.038374,26854
7.038912,16019
7.039518,5889
7.040057,20821
7.040603,44186
7.041145,30455
7.041708,12771
7.042249,24950
7.042795,17508
7.043337,17924
7.043881,17204
7.044425,12419
7.044968,8306
7.045515,5329
7.046074,7985
7.046626,5137
7.047462,21237
7.048460,12419
7.049460,11426
7.050460,20100
7.051462,18132
7.052459,63055
7.053460,36840
7.054459,17588
7.055460,16532
7.056458,9730
7.057460,23333
7.058461,21877
7.059462,7409
7.060460,13843
7.061461,30759
7.062462,4673
7.063460,11810
7.064460,3472
7.065459,15459
7.066458,5633
7.067461,19924
7.068461,34632
7.069460,31927
7.070460,18532
7.071461,54157
7.072460,45227
7.073462,28999
7.074460,8866
7.075459,33896
7.076461,9394
7.077458,25814
7.078459,23797
7.079462,6081
7.080460,7809
7.081458,7329
7.082460,4913
7.083460,4753
7.084460,3920
7.085460,11874
7.086461,37401
7.087459,17604
7.088461,58622
7.089477,6817
7.090467,50140
7.091461,20485
7.092462,9362
7.093458,34856
7.094460,4353
7.095459,18868
7.096462,5025
7.097458,16820
7.098460,11794
7.099460,26566
7.100459,6273
7.101459,4000
7.102460,17828
7.103460,4833
7.104459,8177
7.105459,20388
7.106460,20565
7.107460,11170
7.108461,64927
7.109459,5793
7.110461,11650
7.111460,27654
7.112460,18660
7.113458,40986
7.114461,17444
7.115460,6161
7.116460,22357
7.117458,7073
7.118459,15715
7.119460,14035
7.120460,31799
7.121458,20148
7.122460,8786
7.123460,9570
7.124460,7601
7.125461,21061
7.126460,10018
7.127460,27462
7.128461,6081
7.129458,11266
7.130460,4993
7.131461,26838
7.132460,8498
7.133462,13635
7.134460,32695
7.135457,9026
7.136459,36120
7.137460,5329
7.138459,8001
7.139460,14419
7.140459,8161
7.141460,42538
7.142459,28791
7.143461,5041
7.144462,29927
7.145460,65535
7.146458,6625
7.147460,47211
7.148462,17732
7.149460,31879
7.150459,63695
7.151460,14483
7.152459,4625
7.153476,19124
7.154465,8290
7.155460,32423
7.156460,8226
7.157461,4064
7.158461,17684
7.159460,33160
7.160461,23221
7.161459,39513
7.162460,30247
7.163462,6385
7.164461,13027
7.165458,3760
7.166459,39577
7.167461,49996
7.168460,19092
7.169461,25990
7.170460,7089
7.171461,60862
7.172462,7105
7.173458,6481
7.174460,9170
7.175460,4865
7.176462,13619
7.177460,11794
7.178462,32471
7.179459,54461
7.180459,18820
7.181459,23141
7.182461,24325
7.183463,7601
7.184461,33832
7.185460,25286
7.186463,32711
7.187460,21413
7.188462,16692
7.189461,41194
7.190461,7889
7.191460,12771
7.192461,20004
7.193461,15075
7.194461,4641
7.195460,34520
7.196460,12114
7.197459,27286
7.198457,18084
7.199461,5073
7.200461,40729
7.201461,15075
7.202459,6961
7.203461,34360
7.204460,11794
7.205459,24774
7.206460,7665
7.207460,6625
7.208461,4161
7.209459,11026
7.210459,12258
7.211461,20116
7.212460,8177
7.213461,3872
7.214461,8226
7.215460,31287
7.216460,6945
7.217477,10002
7.218464,21317
7.219460,33720
7.220461,4961
7.221461,31815
7.222460,16035
7.223458,19780
7.224459,5345
7.225460,20420
7.226459,4193
7.227461,37065
7.374057,50892
7.375030,22757
7.375765,5329
7.376476,19908
7.377176,9218
7.377948,7713
7.378651,9298
7.379349,23333
7.380055,16259
7.380775,19428
7.381476,5025
7.382174,19348
7.382875,22901
7.383579,21253
7.384282,5777
7.384990,6321
7.385696,9938
7.386425,41066
7.387128,14179
7.387836,8306
7.388549,15843
7.389256,11154
7.389969,5569
7.390682,7249
7.391389,19236
7.392104,26758
7.392817,19268
7.393536,31767
7.394460,17620
7.395458,33112
7.396460,7681
7.397458,16740
7.398458,28070
7.399459,35400
7.400460,14787
7.401460,4753
7.402460,19140
7.403459,15235
7.404462,57341
7.405460,8850
7.406458,7633
7.407460,6193
7.408483,7521
7.409465,8177
7.410459,27862
7.411460,39321
7.412460,13187
7.413462,5841
7.414460,21973
7.415462,5393
7.416460,4080
7.417458,8898
7.418461,32391
7.419461,9650
7.420460,16115
7.421460,6641
7.422460,6273
7.423460,27702
7.424460,3888
7.425460,4097
7.426461,32295
7.427460,7521
7.428463,27366
7.429462,6289
7.430460,12034
7.431460,19652
7.432458,13811
7.433460,37833
7.434460,43898
7.435459,19252
7.436459,46491
7.437460,39705
7.438459,14579
7.439461,19172
7.440461,6753
7.441461,57742
7.442458,7713
7.443462,13875
7.444461,7137
7.445461,27478
7.446461,47659
7.447460,22661
7.448461,9874
7.449460,34408
7.450460,42890
7.451460,30183
7.452462,28695
7.453459,26678
7.454460,6465
7.455461,15747
7.456461,7233
7.457462,9026
7.458459,46043
7.459458,44618
7.460461,14819
7.461459,20981
7.462460,30247
7.463459,36440
7.464460,56541
7.465460,62687
7.466461,4080
7.467458,7937
7.468458,8226
7.469462,24565
7.470461,46523
7.471461,17540
7.472475,10642
7.473465,30407
7.474462,5009
7.475460,40089
7.476460,65535
7.477460,63919
7.478458,33960
7.479458,13427
7.480460,10130
7.481457,20789
7.482462,17748
7.483462,8706
7.484460,17892
7.485460,15267
7.486458,11986
7.487462,29015
7.488460,37609
7.489463,17092
7.490460,4353
7.491460,9762
7.492460,4273
7.493461,17364
7.494461,17844
7.495462,4161
7.496457,21237
7.497460,5025
7.498462,40089
7.499460,33560
7.500457,20180
7.501459,4513
7.502460,18868
7.503460,25654
7.504459,5537
7.505462,9170
7.506460,4737
7.507460,6065
7.508459,31479
7.509460,5665
7.510461,7057
7.511462,5169
7.512462,7361
7.513460,7969
7.514462,10498
7.515462,8177
7.516460,6017
7.517462,7297
7.518461,4609
7.519460,7217
7.520460,26806
7.521460,8914
7.522462,34264
7.523462,30983
7.524460,40105
7.525462,65535
7.526460,29463
7.527461,8177
7.528460,19140
7.529460,36104
7.530461,8194
7.531460,46827
7.532462,28518
7.533460,9874
7.534460,5153
7.535459,22437
7.536503,7441
7.537470,29607
7.538461,14659
7.539462,5761
7.540459,7937
7.551070,10946
7.551297,9794
7.551507,8674
7.551716,6529
7.551926,4689
7.552139,8177
7.552349,11586
7.552566,17764
7.552781,20052
7.552993,17764
7.553460,15251
7.554461,10002
7.555461,5121
7.556461,4513
7.557460,14531
7.558462,65055
7.559461,53068
7.560461,23973
7.561460,11954
7.562462,7761
7.563459,9410
7.564460,18004
7.565460,21797
7.566458,13411
7.567460,23381
7.685381,10530
7.685943,14851
7.686258,16227
7.686549,10434
7.686830,11282
7.687174,20052
7.687456,19972
7.687738,12210
7.688018,6417
7.688313,9090
7.688598,29111
7.688878,44378
7.689461,60958
7.690460,44618
7.691457,15523
7.692460,15507
7.693458,34840
7.694460,32920
7.695460,4481
7.696460,7937
7.697460,34136
7.698461,28134
7.699459,8097
7.700459,7249
7.701458,18724
7.702462,33416
7.703461,46427
7.704462,10018
7.705461,24565
7.706462,31431
7.707461,28759
7.708460,6097
7.709460,6961
7.710460,26902
7.711459,27318
7.712460,23429
7.713461,5313
7.714459,21861
7.715460,18436
7.716460,9634
7.717461,16788
7.718462,54109
7.719460,25814
7.720459,26966
7.721462,7825
7.722460,15571
7.723461,7393
7.724459,10162
7.725460,38857
7.726460,30951
7.727459,8514
7.728461,27494
7.729480,39961
7.730471,22821
7.731461,12515
7.732460,10194
7.733464,27494
7.734461,47179
7.735461,16948
7.736458,11026
7.737460,58030
7.738459,8690
7.739460,61535
7.740458,30503
7.741460,5793
7.742461,17988
7.743458,8466
7.744461,28438
7.745460,10210
7.746458,26342
7.747458,10914
7.748460,18324
7.749463,11842
7.750459,7969
7.751462,4769
7.752460,13795
7.753460,17348
7.754460,26470
7.755461,4769
7.756461,10098
7.757460,34248
7.758459,18196
7.759458,19428
7.760460,6449
7.761461,6529
7.762461,5537
7.763460,5393
7.764460,6497
7.765460,17220
7.766459,23429
7.767460,41834
7.768462,29975
7.769459,14483
7.770461,27030
7.771461,26646
7.772462,11394
7.773461,17684
7.774460,15747
7.775462,15763
7.776461,12835
7.777460,28262
7.778460,6113
7.779460,65535
7.780460,34136
7.781459,23141
7.782460,21285
7.783461,23557
7.784460,5265
7.785460,14131
7.786461,8674
7.787460,7969
7.788460,5441
7.789462,21845
7.790461,5137
7.791460,11554
7.792459,37145
7.793475,6577
7.794468,5825
7.795463,6721
7.796461,4449
7.797461,48011
7.798458,18596
7.799461,37817
7.800461,9090
7.801460,12531
7.802462,14755
7.803462,6241
7.804458,9794
7.805461,4193
7.806461,14755
7.807459,27670
7.808460,18948
7.809460,5345
7.810460,22597
7.811461,14227
7.812460,4625
7.813461,21909
7.814460,37817
7.815461,9282
7.816461,8370
7.817460,11778
7.818460,10386
7.819460,20485
7.820461,12162
7.821459,10562
7.822460,5473
7.823460,15571
7.824461,39305
7.825460,41210
7.826459,10834
7.827460,13811
7.828460,49212
7.829461,19428
7.830461,28598
7.831462,58430
7.832460,15699
7.833459,18388
7.834459,13027
7.835458,23365
7.836460,6593
7.837460,4609
7.838460,22885
7.839460,33752
7.840461,3904
7.841459,7265
7.842459,12899
7.843461,6577
7.844461,5425
7.845462,18436
7.846461,12483
7.847460,9506
7.848460,4753
7.849462,13587
7.850460,4273
7.851459,27190
7.852461,31895
7.853458,15363
7.854460,25062
7.855458,13075
7.856459,14435
7.857477,10818
7.858466,17700
7.859461,4529
7.860460,11938
7.861460,11362
7.862462,6193
7.863461,17684
7.864458,10658
7.865460,12851
7.866460,35272
7.867459,56717
7.868459,12483
7.869460,25878
7.870460,20741
7.871461,9762
7.872460,26054
7.873462,4273
7.874462,21221
7.875460,23253
7.876462,6865
8.038545,8498
8.039219,11650
8.039682,18964
8.040119,33176
8.040555,22453
8.041051,7505
8.041490,4064
8.041921,5073
8.042351,16484
8.042805,45467
8.043230,56349
8.043666,55645
8.044099,47323
8.044536,43690
8.044974,21861
8.045461,9650
8.046460,14435
8.047461,6417
8.048460,11202
8.049485,32567
8.050468,24037
8.051464,31543
8.052461,18996
8.053461,8802
8.054458,8866
8.055459,13395
8.056462,19668
8.057459,7169
8.058460,17252
8.059460,5217
8.060460,7889
8.061460,4449
8.062460,4913
8.063460,15075
8.064459,4257
8.065459,15971
8.066459,14067
8.067459,9778
8.068460,8930
8.069461,11602
8.070460,28502
8.071462,5089
8.072460,17812
8.073459,5057
8.074460,41370
8.075458,18468
8.076460,4945
8.077463,6737
8.078460,18980
8.079460,14739
8.080460,14435
8.081460,27686
8.082461,7537
8.083459,38217
8.084462,6641
8.085460,12371
8.086458,20885
8.087462,7105
8.088460,14883
8.089462,4177
8.090460,39129
8.091460,5281
8.092460,13075
8.093461,10162
8.094461,20661
8.095461,12499
8.096461,10514
8.097459,7057
8.098460,13075
8.099460,7473
8.100458,30887
8.101460,22213
8.102463,7361
8.103460,19348
8.104460,18948
8.105460,6337
8.106458,8482
8.107461,5329
8.108461,29447
8.109462,21013
8.110460,13331
8.111460,7425
8.112480,9458
8.113470,9378
8.114461,13587
8.115459,4865
8.116459,6289
8.117460,4705
8.118461,12675
8.119460,9394
8.120461,7185
8.121458,8898
8.122460,8177
8.123460,9010
8.124460,11250
8.125458,8738
8.126462,34152
8.127462,24421
8.128459,24293
8.129462,5777
8.130460,6273
8.131460,5953
8.132461,35928
8.133458,11650
8.134460,16051
8.135460,20308
8.136459,15955
8.137461,7713
8.138460,18628
8.139460,14275
8.140460,7601
8.141462,37097
8.142459,36889
8.143460,25030
8.144460,10002
8.145460,23621
8.146458,6609
8.147461,9602
8.148460,11058
8.149460,16051
8.150459,11746
8.151462,14691
8.152460,10962
8.153461,4449
8.154460,5057
8.155460,12659
8.156460,8978
8.157460,10050
8.158458,14291
8.159460,22949
8.160461,14243
8.161461,18244
8.162460,5185
8.163462,21989
8.164458,10130
8.165459,63391
8.166458,21989
8.167460,4545
8.168462,18228
8.169459,23701
8.170461,44890
8.171460,8274
8.172462,4225
8.173461,5393
8.174462,45243
8.175459,48187
8.176475,6753
8.177468,11346
8.178460,14275
8.179462,9474
8.180460,5729
8.181461,9058
8.182459,20164
8.183460,27286
8.184462,6225
8.185458,25638
8.186461,6481
8.187460,48587
8.188460,35688
8.189459,14931
8.190460,9474
8.191463,8370
8.192463,14131
8.193461,6449
8.194457,26230
8.195459,50988
8.196459,18884
8.197461,11410
8.198460,22341
8.199458,28582
8.200460,18948
8.201460,8177
8.202460,26022
8.203460,6609
8.204462,3904
8.205458,4705
8.206460,4913
8.207461,9410
8.208461,22325
8.209460,20741
8.210460,21717
8.211460,19236
8.212461,5809
8.213458,4177
8.214460,7553
8.215461,10322
8.216461,13907
8.217460,38553
8.218460,10018
8.219462,37769
8.220460,41658
8.221460,19300
8.222459,5713
8.223461,14355
8.224460,7009
8.225462,20036
8.226460,17604
8.227462,4993
8.228461,15683
8.229461,3872
8.387358,7441
8.388205,4369
8.388826,16708
8.389415,14227
8.390006,8242
8.390659,5425
8.391246,34312
8.391837,12483
8.392420,10690
8.393028,8194
8.393618,6705
8.394207,12050
8.394797,5265
8.395386,38985
8.395977,22341
8.396573,4753
8.397160,21141
8.397779,15523
8.398370,7393
8.398967,4145
8.399564,7761
8.400460,6353
8.401460,14755
8.402461,8226
8.403460,4849
8.404460,5937
8.405460,22197
8.406460,4225
8.407462,7521
8.408460,6433
8.409460,11090
8.410460,4753
8.411461,12226
8.412461,17284
8.413459,5873
8.414460,4449
8.415460,11266
8.416462,8194
8.417459,9042
8.418458,8770
8.419462,10450
8.420459,9282
8.421458,27110
8.422462,64095
8.423460,16740
8.424460,10530
8.425460,9298
8.426461,6081
8.427461,9058
8.428462,16131
8.429461,15843
8.430460,6129
8.431458,4865
8.432485,20981
8.433466,20693
8.434461,5969
8.435461,10338
8.436462,23173
8.437461,5553
8.438460,18276
8.439462,24822
8.440459,6993
8.441462,4561
8.442459,4609
8.443460,10466
8.444460,4801
8.445460,5425
8.446458,14547
8.447459,18388
8.448461,9314
8.449459,4545
8.450461,26166
8.451462,32071
8.452460,47723
8.453458,37145
8.454462,31879
8.455460,17636
8.456461,13011
8.457460,6065
8.458461,8834
8.459460,10562
8.460462,6593
8.461460,4641
8.462460,4641
8.463460,4545
8.464460,7905
8.465460,8706
8.466462,13763
8.467461,4801
8.468460,13859
8.469459,8129
8.470461,5121
8.471461,4353
8.472460,11746
8.473462,5729
8.474460,7233
8.475461,11218
8.476459,9026
8.477459,4769
8.478460,6097
8.479460,9090
8.480459,10498
8.481461,7169
8.482459,5137
8.483460,4513
8.484460,10194
8.485457,14563
8.486458,5793
8.487461,4417
8.488458,9906
8.489461,8530
8.490460,4561
8.491460,19412
8.492459,14787
8.493460,21973
8.494461,4273
8.495459,8418
8.496477,5409
8.497468,11714
8.498461,8402
8.499463,14547
8.500461,57534
8.501461,6529
8.502462,5537
8.503460,14019
8.504463,44602
8.505460,32952
8.506459,7425
8.507461,23813
8.508459,9490
8.509461,61503
8.510460,23045
8.511460,7969
8.512460,55869
8.513460,29511
8.514461,7185
8.515460,9138
8.516461,6833
8.517459,10434
8.518461,7713
8.519459,14819
8.520460,5393
8.521459,10674
8.522462,4401
8.523462,11522
8.524459,22869
8.525461,17972
8.526458,7009
8.527460,38569
8.528459,26982
8.529460,14547
8.530458,5377
8.531460,9042
8.532460,39977
8.533460,47435
8.534460,6913
8.535460,15155
8.536460,12547
8.537460,9522
8.538461,5361
8.539460,28374
8.540461,5473
8.541460,19220
8.542460,33608
8.543461,33928
8.544460,25078
8.545459,13795
8.546460,39897
8.547462,30487
8.548459,18708
8.549461,9746
8.550461,6753
8.551458,21781
8.552460,5473
8.553460,5313
8.554461,4561
8.555459,4929
8.556462,9570
8.557460,9314
8.558461,20741
8.559458,17876
8.560517,11746
8.561469,9138
8.562461,6545
8.563461,11826
8.564461,4609
8.565462,6177
8.566460,4417
8.567461,6609
8.568461,17908
8.569462,4785
8.570462,4817
8.571461,6465
8.572460,6545
8.573460,19508
8.574461,4833
8.575460,8177
8.576460,44554
8.577461,5793
8.578460,6433
8.691327,6497
8.692351,7233
8.693135,7665
8.693885,9170
8.694632,5185
8.695455,4801
8.696196,6097
8.696947,7937
8.697692,4609
8.698462,8226
8.699208,11858
8.699957,7665
8.700710,12050
8.701465,6689
8.702214,5249
8.702967,20164
8.703724,25878
8.704502,18692
8.705256,5361
8.706012,4465
8.706769,6033
8.707530,7041
8.708278,10034
8.709037,9666
8.709803,9602
8.710566,11426
8.711323,12178
8.712085,8177
8.712848,4177
8.713608,18436
8.714369,13459
8.715133,16932
8.715902,4353
8.716708,6353
8.717474,5345
8.718460,22357
8.719460,10898
8.720461,13107
8.721460,8626
8.722461,6609
8.723461,5281
8.724460,6017
8.725459,9154
8.726460,7153
8.727460,6657
8.728460,12323
8.729460,8882
8.730460,5169
8.731460,5313
8.732458,8850
8.733460,7521
8.734462,4689
8.735459,5937
8.736460,4769
8.737461,6193
8.738461,18004
8.739459,7633
8.740462,16644
8.741463,16564
8.742459,4641
8.743461,8226
8.744460,8802
8.745460,5953
8.746458,10530
8.747460,17956
8.757879,9154
8.758116,6225
8.758329,6977
8.758542,6241
8.758750,4913
8.758962,5377
8.759173,8402
8.759384,8482
8.759601,5313
8.759816,9266
8.760458,14243
8.761460,5297
8.762461,6817
8.763461,22949
8.764460,7857
8.765458,8450
8.766461,65535
8.767460,56029
8.768461,6225
8.769459,32679
8.770460,22405
8.771460,4673
8.772459,4945
8.773460,6673
8.774458,14915
8.775460,47243
8.776462,8754
8.777459,10130
8.778460,6225
8.779461,5409
8.780458,26566
8.781460,53196
8.782460,39385
8.783460,47131
8.784461,18564
8.785460,5905
8.786460,5921
8.787460,4833
8.788461,20308
8.789460,21397
8.790460,17108
8.791457,9650
8.792462,4833
8.793461,6401
8.794460,20549
8.795460,19204
8.796459,5649
8.797462,35016
8.798460,37817
8.799460,8642
8.800460,19588
8.801461,5025
8.802458,4721
8.803463,18996
8.804462,22741
8.805460,10114
8.806462,22037
8.807460,26454
8.808459,12595
8.809459,6961
8.810459,4753
8.811458,20068
8.812460,44042
8.813460,30951
8.814462,6017
8.815461,4865
8.816460,4817
8.817478,4817
8.818464,17220
8.819462,5313
8.820461,4657
8.821461,6673
8.822461,13059
8.823460,5617
8.824460,5073
8.825459,10642
8.826461,26902
8.827460,19284
8.828460,6353
8.829460,6865
8.830459,6177
8.831461,4641
8.832462,15251
8.833460,23301
8.834460,23829
8.835460,22773
8.836461,8530
8.837461,25526
8.838461,23861
8.839460,9410
8.840462,7297
8.841460,5777
8.842460,7985
8.843457,5537
8.844462,4401
8.845461,10514
8.846459,11122
8.847460,4913
8.848459,7345
8.849459,6993
8.850460,6753
8.851460,8866
8.852460,47979
8.853462,35416
8.854460,11266
8.855457,7825
8.856460,7201
8.857459,8578
8.858460,15299
8.859461,14883
8.860460,11618
8.861460,20901
8.862460,24774
8.863460,7057
8.864460,11970
8.865462,17476
8.866458,4897
8.867461,5345
8.868461,12291
8.869460,4801
8.870461,15955
8.871459,9506
8.872459,4961
8.873460,6833
8.874460,9234
8.875461,9330
8.876460,20709
8.877460,8642
8.878460,17540
8.879459,11186
8.880461,31767
8.881473,11986
8.882462,8498
8.883461,4769
8.884461,6753
9.041857,5697
9.042463,5265
9.042839,6993
9.043183,9282
9.043530,8450
9.043934,5169
9.044273,4545
9.044620,4641
9.044961,4929
9.045324,5473
9.045671,10706
9.046016,11730
9.046462,6353
9.047460,7329
9.048460,43962
9.049462,23525
9.050460,12194
9.051463,32583
9.052460,10194
9.053460,4993
9.054460,8594
9.055459,4913
9.056459,8161
9.057463,5969
9.058460,4577
9.059459,5377
9.060460,10178
9.061460,5281
9.062462,7009
9.063460,17924
9.064462,10466
9.065460,13795
9.066461,8001
9.067459,11506
9.068458,11954
9.069460,4769
9.070462,15827
9.071460,36376
9.072459,17668
9.073478,10690
9.074466,10642
9.075463,10930
9.076460,6657
9.077460,7217
9.078460,9122
9.079462,7217
9.080460,8466
9.081458,6225
9.082458,10674
9.083459,13635
9.084460,6577
9.085462,4945
9.086460,27622
9.087461,18340
9.088461,10242
9.089461,8498
9.090460,15251
9.091460,6033
9.092461,20356
9.093462,4977
9.094460,7681
9.095460,33048
9.096460,12771
9.097460,22789
9.098458,20116
9.099460,18660
9.100461,5393
9.101459,5217
9.102460,22213
9.103461,16195
9.104461,9634
9.105460,7521
9.106460,9570
9.107460,21989
9.108459,8626
9.109459,7553
9.110460,6705
9.111461,6801
9.112462,7393
9.113459,9170
9.114460,8546
9.115463,10770
9.116461,6337
9.117459,4913
9.118461,5377
9.119460,5521
9.120461,5617
9.121459,7617
9.122460,28230
9.123462,9634
9.124458,4993
9.125460,7377
9.126461,8498
9.127459,10002
9.128460,7601
9.129459,8834
9.130462,32183
9.131459,34248
9.132460,30039
9.133459,30567
9.134459,15907
9.135463,6161
9.136458,6017
9.137475,18900
9.138469,10146
9.139461,21173
9.140461,4737
9.141459,7985
9.142460,13091
9.143458,18244
9.144462,6993
9.145460,5873
9.146462,6273
9.147459,21589
9.148460,17972
9.149462,5761
9.150460,7857
9.151460,6161
9.152462,16339
9.153461,5713
9.154461,20869
9.155458,12355
9.156461,5313
9.157459,8001
9.158458,10306
9.159461,5297
9.160461,5201
9.161461,4657
9.162459,6321
9.163461,3808
9.164459,21269
9.165460,10146
9.166460,17572
9.167460,5281
9.168461,22405
9.169460,42266
9.170460,26854
9.171462,6337
9.172458,10290
9.173462,9090
9.174459,9650
9.175459,15907
9.176462,29367
9.177462,6353
9.178461,23461
9.179460,27686
9.180460,5089
9.181460,10786
9.182461,5121
9.183460,9138
9.184458,15939
9.185461,9090
9.186461,25318
9.187461,7905
9.188460,15443
9.189460,7505
9.190460,13091
9.191460,16019
9.192460,4865
9.193461,9442
9.194462,4993
9.195458,3680
9.196460,6801
9.197458,24982
9.198460,11410
9.199461,12307
9.200459,7265
9.201474,5441
9.202467,4865
9.203461,7905
9.204460,5329
9.205461,4753
9.206460,8177
9.207459,9714
9.208463,7425
9.209459,7473
9.210461,21829
9.211460,7425
9.212460,9618
9.213461,10514
9.214459,13059
9.215460,19860
9.216461,8177
9.217459,32583
9.218460,39977
9.219458,13395
9.220460,7329
9.221459,5457
9.222460,7441
9.223460,15571
9.224459,4785
9.225458,6497
9.226460,8065
9.227461,6113
9.228460,33896
9.229458,7809
9.230462,8434
9.231461,5265
9.232460,8242
9.233461,6481
9.428754,9490
9.429508,37481
9.430039,40665
9.430542,22789
9.431039,6881
9.431605,16932
9.432096,23989
9.432591,24742
9.433088,10034
9.433604,5905
9.434099,4513
9.434598,6289
9.435099,4337
9.435599,11266
9.436096,15619
9.436596,7841
9.437460,5345
9.438460,3904
9.439461,4513
9.440461,9058
9.441462,17236
9.442462,5713
9.443460,3504
9.444461,8033
9.445461,5793
9.446460,8626
9.447458,11778
9.448461,8754
9.449459,35544
9.450462,23477
9.451460,8177
9.452460,4737
9.453460,39657
9.454461,38217
9.455460,51468
9.456462,7473
9.457477,10130
9.458468,5681
9.459461,11954
9.460462,9170
9.461459,3872
9.462461,9634
9.463460,6993
9.464461,7601
9.465460,3904
9.466461,9138
9.467460,5841
9.468459,4369
9.469462,7889
9.470460,5137
9.471461,9634
9.472459,4369
9.473460,5313
9.474459,6849
9.475461,8930
9.476461,10146
9.477459,7521
9.478459,11970
9.479460,8386
9.480461,10034
9.481460,11554
9.482459,3968
9.483461,10002
9.484460,4321
9.485460,4689
9.486460,14499
9.487460,4961
9.488460,12707
9.489460,7633
9.490460,12050
9.491459,28310
9.492462,11042
9.493460,3840
9.494460,5169
9.495458,15379
9.496462,29831
9.497460,18468
9.498458,11090
9.499460,20308
9.500461,8898
9.501463,8994
9.502461,4241
9.503459,4064
9.504460,4881
9.505460,23077
9.506460,4609
9.507460,7505
9.508458,7297
9.509460,17748
9.510461,4881
9.511458,34024
9.512461,6065
9.513460,10418
9.514459,7761
9.515461,16772
9.516461,4993
9.517459,4561
9.518460,20613
9.519461,7249
9.520481,11474
9.521467,15251
9.522461,10626
9.523460,11010
9.524461,5217
9.525459,4993
9.526460,24565
9.527460,13139
9.528460,13411
9.529461,15619
9.530460,22149
9.531461,29895
9.532460,18868
9.533462,6097
9.534459,7089
9.535460,3728
9.536461,10850
9.537460,15699
9.538458,9138
9.539462,4961
9.540461,3632
9.541459,5921
9.542460,4064
9.543461,7121
9.544461,9538
9.545461,8786
9.546460,7249
9.547461,16596
9.548460,3920
9.549462,12194
9.550460,6977
9.551461,4401
9.552461,31191
9.553460,16932
9.554460,3648
9.555459,7633
9.556462,8882
9.557460,8946
9.558462,4753
9.559462,14419
9.560461,13315
9.561460,4225
9.562460,20100
9.563462,11490
9.564460,4769
9.565459,23253
9.566458,52108
9.567460,29463
9.568461,6625
9.569462,24165
9.570460,36392
9.571461,10050
9.572458,21557
9.573462,20068
9.574459,5809
9.575459,13155
9.576461,20565
9.577459,25030
9.578458,7873
9.579460,6465
9.580460,13619
9.581461,8177
9.582462,6417
9.583459,8978
9.584476,6657
9.585460,4929
9.586460,11298
9.587460,21397
9.588459,7633
9.589461,18292
9.590460,29671
9.591461,9394
9.592461,10050
9.593459,8177
9.594459,13219
9.595461,18692
9.596459,3840
9.597460,6193
9.598459,25494
9.599461,15075
9.600460,7985
9.601460,8177
9.602462,5729
9.603460,9874
9.604460,15523
9.605460,27686
9.606460,10690
9.607460,30663
9.608462,15379
9.609460,21493
9.610460,22405
9.611460,11362
9.612459,8418
9.613460,17796
9.614460,12691
9.615459,5361
9.616459,3680
9.617460,3632
9.618459,5857
9.619460,10834
9.620460,5713
9.767874,7297
9.768792,3888
9.769475,10802
9.770127,8177
9.770780,5137
9.771491,10498
9.772135,9522
9.772787,4737
9.773434,6977
9.774103,4513
9.774757,10626
9.775406,16932
9.776055,14659
9.776833,18772
9.777497,14867
9.778153,11842
9.778803,17252
9.779479,25654
9.780131,25046
9.780786,30023
9.781439,15283
9.782088,8177
9.782747,7201
9.783459,4897
9.784460,4369
9.785460,13635
9.786458,5521
9.787460,4497
9.788460,13139
9.789461,8001
9.790460,8274
9.791460,17508
9.792460,11362
9.793461,7617
9.794461,24726
9.795459,23237
9.796461,4305
9.797460,19796
9.798461,14563
9.799461,14355
9.800460,15427
9.801460,9410
9.802458,23205
9.803460,24037
9.804460,3920
9.805460,19844
9.806460,19620
9.807459,6817
9.808462,14019
9.809462,7553
9.810460,5057
9.811460,9298
9.812460,4497
9.813461,3808
9.814462,3456
9.815458,17092
9.816460,31383
9.817462,9042
9.818460,10114
9.819462,11074
9.820460,4177
9.821460,8530
9.822461,40025
9.823458,60638
9.824461,6001
9.825460,36696
9.826461,38153
9.827460,6177
9.828460,15843
9.829460,5953
9.830460,12002
9.831460,5009
9.832463,6065
9.833461,6225
9.834459,3840
9.835460,9090
9.836462,19604
9.837460,3824
9.838460,6177
9.839462,10498
9.840476,13587
9.841468,28070
9.842458,19716
9.843460,8962
9.844459,4433
9.845461,18548
9.846460,14195
9.847462,5425
9.848460,9826
9.849459,16772
9.850459,12483
9.851461,4497
9.852461,8033
9.853462,7089
9.854458,13475
9.855461,7313
9.856460,4609
9.857460,8033
9.858460,8978
9.859459,13731
9.860459,4449
9.861460,3808
9.862460,12162
9.863461,9490
9.864459,3840
9.865458,16468
9.866459,8017
9.867462,9138
9.868460,5825
9.869462,9346
9.870462,9634
9.871460,7473
9.872459,5921
9.873460,5201
9.874460,4080
9.875461,7457
9.876461,6273
9.877459,13155
9.878460,22501
9.879460,8177
9.880460,4529
9.881460,13875
9.882461,10146
9.883462,5569
9.884462,22901
9.885459,13075
9.886460,5649
9.887460,7937
9.888462,7745
9.889458,4257
9.890461,14563
9.891462,8177
9.892460,12467
9.893460,4817
9.894460,45002
9.895460,30327
9.896460,4833
9.897459,15379
9.898461,36360
9.899460,45995
9.900459,42026
9.901460,7521
9.902460,37033
9.903460,48107
9.904477,22309
9.905467,15859
9.906461,6145
9.907463,5985
9.908458,9442
9.909460,9986
9.910460,34232
9.911462,3728
9.912459,5377
9.913461,18468
9.914462,10514
9.915460,17012
9.916460,10898
9.917458,28935
9.918461,5425
9.919461,15331
9.920460,18324
9.921461,6833
9.922461,14019
9.923461,7633
9.924460,5153
9.925462,10450
9.926459,22373
9.927460,3792
9.928462,6337
9.929460,3728
9.930460,8594
9.931461,5217
9.932462,3856
9.933460,3808
9.934460,5041
9.935459,7633
9.936460,19364
9.937461,18564
9.938460,13267
9.939461,8706
9.940461,36104
9.941460,39353
9.942462,6945
9.943462,13475
9.944462,17060
9.945459,14547
9.946460,5889
9.947459,4385
9.948462,3632
9.949460,6081
9.950460,6977
9.951458,6961
9.952461,11474
9.953461,12675
9.954460,5857
9.955460,10962
9.956462,13027
9.957458,5009
9.958460,11842
9.959461,4833
10.072376,3888
10.074495,18084
10.075467,5777
10.076314,42458
10.077130,44858
10.078005,29335
10.078814,15795
10.079626,18308
10.080433,5425
10.081259,13667
10.082067,17524
10.082886,38697
10.083698,48027
10.084522,28743
10.085331,9362
10.086151,34616
10.093499,25798
10.093735,24565
10.093949,26326
10.094161,25030
10.094378,26726
10.094593,30439
10.094805,32519
10.095027,32279
10.095239,28566
10.095462,32663
10.096462,28310
10.097480,7201
10.098465,11858
10.099461,11730
10.100460,7313
10.101461,9906
10.102462,4913
10.103461,27942
10.104462,9394
10.105458,9106
10.106460,9906
10.107460,4897
10.108460,9858
10.109459,12002
10.110459,5345
10.111462,8626
10.112458,17444
10.113462,13011
10.114461,15907
10.115462,9986
10.116460,23093
10.117460,17380
10.118461,7841
10.119460,43018
10.120457,19636
10.121460,8290
10.122463,23653
10.123460,14563
10.124462,15027
10.125460,4321
10.126462,5857
10.127461,4833
10.128460,3968
10.129461,5681
10.130458,6081
10.131460,22565
10.132462,9362
10.133461,11186
10.134459,4449
10.135461,11298
10.136462,4689
10.137462,10290
10.138461,6657
10.139460,11986
10.140460,17092
10.141461,5089
10.142460,5937
10.143461,16355
10.144461,19908
10.145459,15139
10.146460,33800
10.147459,10802
10.148463,25750
10.149461,7713
10.150460,9650
10.151459,14579
10.152460,9506
10.153461,7377
10.154461,8498
10.155460,7201
10.156460,4161
10.157460,27062
10.158461,25750
10.159462,3920
10.160462,3680
10.161479,8145
10.162465,14819
10.163460,15539
10.164459,20292
10.165460,17348
10.166460,3872
10.167459,4000
10.168459,8194
10.169460,9538
10.170459,10530
10.171460,5681
10.172461,11538
10.173460,11410
10.174460,9922
10.175460,5857
10.176460,7585
10.177460,15427
10.178459,28118
10.179460,12194
10.180459,20549
10.181460,4865
10.182461,21333
10.183460,65535
10.184461,28630
10.185461,11026
10.186461,6209
10.187462,5377
10.188460,5697
10.189461,6913
10.190461,14259
10.191459,9362
10.192461,6177
10.193459,8674
10.194460,7041
10.195460,28695
10.196461,10066
10.197461,13235
10.198459,10578
10.199458,8434
10.200461,24245
10.201461,5601
10.202459,5537
10.203460,9858
10.204459,4529
10.205461,22517
10.206462,11810
10.207459,11042
10.208460,8129
10.209460,12627
10.210460,11586
10.211459,10322
10.212462,4097
10.213459,7617
10.214459,5521
10.215461,5921
10.216460,5905
10.217461,6561
10.218460,7377
10.219462,20036
10.220461,8770
10.221460,11586
10.222459,4993
10.223461,5505
10.224460,4577
10.225472,9826
10.226467,11090
10.227462,12739
10.228461,8177
10.229461,21573
10.230461,20260
10.231458,9874
10.232460,17780
10.233462,19172
10.234460,10434
10.235459,7329
10.236461,5441
10.237461,6417
10.238462,16051
10.239461,10722
10.240460,16532
10.241458,14435
10.242460,18676
10.243461,8498
10.244458,8226
10.245461,23845
10.246461,27942
10.247460,4497
10.248459,4321
10.249461,4193
10.250460,6289
10.251460,5297
10.252462,6401
10.253460,5601
10.254460,6017
10.255458,7793
10.256460,8914
10.257459,18372
10.258460,17124
10.259461,9890
10.260460,9506
10.261460,15875
10.262460,4657
10.263459,4897
10.264459,7969
10.265461,30919
10.266460,4193
10.267460,5377
10.268460,5489
10.269460,6609
10.427499,7761
10.428121,10130
10.428518,10498
10.428894,12995
10.429266,9666
10.429716,3808
10.430085,4577
10.430461,7297
10.430838,8242
10.431232,9362
10.431609,9730
10.431990,8017
10.432363,4673
10.432743,16644
10.433460,25254
10.434460,14595
10.435461,4673
10.436458,18660
10.437460,19204
10.438461,40649
10.439460,4833
10.440460,9378
10.441460,10850
10.442459,7345
10.443461,4513
10.444460,7169
10.445460,6833
10.446460,7473
10.447458,4673
10.448458,8802
10.449460,4193
10.450461,7569
10.451462,6561
10.452461,4016
10.453460,18532
10.454458,5505
10.455460,9826
10.456460,5393
10.457461,16291
10.458460,10386
10.459460,5313
10.460459,5601
10.461461,4369
10.462460,4769
10.463458,4641
10.464460,4241
10.465460,5313
10.466460,8962
10.467462,8177
10.468457,7201
10.469461,30951
10.470460,19188
10.471462,21045
10.472461,16179
10.473462,25830
10.474460,9730
10.475461,7105
10.476462,6561
10.477459,10770
10.478458,4145
10.479461,5825
10.480460,26582
10.481483,4993
10.482465,6865
10.483461,8177
10.484461,4769
10.485460,7681
10.486460,14467
10.487460,5569
10.488461,6481
10.489461,4769
10.490461,18692
10.491460,10866
10.492460,17044
10.493460,20372
10.494459,5905
10.495460,4241
10.496458,13491
10.497460,22453
10.498461,28951
10.499461,9458
10.500462,10290
10.501459,7457
10.502459,5153
10.503460,4609
10.504461,7185
10.505462,7713
10.506462,6065
10.507460,6657
10.508462,5889
10.509460,4577
10.510459,7137
10.511460,10770
10.512460,8578
10.513460,7889
10.514460,8578
10.515461,4113
10.516460,6833
10.517461,7889
10.518460,5185
10.519460,16852
10.520460,28198
10.521460,11618
10.522460,9346
10.523461,7649
10.524461,20404
10.525459,4785
10.526459,6929
10.527458,5521
10.528460,4417
10.529462,7745
10.530460,10834
10.531460,4705
10.532460,4513
10.533459,5121
10.534461,4145
10.535461,4080
10.536459,4353
10.537462,19380
10.538460,4289
10.539461,7729
10.540462,11458
10.541460,7809
10.542460,7521
10.543460,14371
10.544462,5601
10.545488,4209
10.546468,9154
10.547461,4241
10.548461,4705
10.549460,15443
10.550460,6065
10.551460,8482
10.552459,23685
10.553461,5057
10.554459,15523
10.555461,4817
10.556458,20404
10.557460,7345
10.558458,4321
10.559458,10786
10.560460,8049
10.561463,11714
10.562461,6833
10.563460,9986
10.564460,24149
10.565460,6209
10.566461,8322
10.567461,23717
10.568459,4769
10.569461,4785
10.570460,4849
10.571459,5313
10.572459,5489
10.573461,12531
10.574458,4273
10.575460,9650
10.576462,10018
10.577460,31655
10.578460,32679
10.579459,13075
10.580461,6081
10.581459,11282
10.582462,8802
10.583460,7105
10.584460,4145
10.585462,5345
10.586460,8978
10.587459,8049
10.588458,24373
10.589461,28662
10.590461,12339
10.591459,21781
10.592460,19396
10.593462,37033
10.594461,38809
10.595459,34536
10.596460,5761
10.597460,22853
10.598460,4273
10.599458,5921
10.600461,9362
10.601460,4145
10.602459,7873
10.603462,10674
10.604458,7649
10.605462,5201
10.606460,22197
10.607459,12291
10.608461,9826
10.609475,14291
10.610464,10834
10.611461,14515
10.612459,7057
10.613460,5553
10.614458,9490
10.615459,8177
10.616461,15539
10.617462,15187
10.618462,17220
10.777002,19428
10.777804,28598
10.778359,28230
10.778900,31623
10.779432,21653
10.780032,5857
10.780565,8642
10.781093,7489
10.781627,8706
10.782184,9090
10.782722,10306
10.783256,12979
10.783796,8706
10.784332,10498
10.784872,17332
10.785407,20933
10.785944,30535
10.786503,39913
10.787460,6721
10.788458,28775
10.789460,30087
10.790460,4529
10.791462,11266
10.792460,10722
10.793461,8802
10.794459,4737
10.795461,5345
10.796461,5393
10.797461,7505
10.798461,8033
10.799461,7729
10.800460,4321
10.801481,6097
10.802466,33352
10.803462,22197
10.804461,8210
10.805460,4993
10.806459,22325
10.807460,28054
10.808461,31847
10.809462,11394
10.810460,8177
10.811460,26134
10.812460,44986
10.813460,32151
10.814462,5473
10.815460,8706
10.816462,8754
10.817462,5649
10.818460,4641
10.819460,5457
10.820459,4689
10.821459,8161
10.822459,5521
10.823461,4529
10.824460,11842
10.825462,23557
10.826461,7921
10.827461,26502
10.828462,11602
10.829458,14131
10.830460,5377
10.831459,10882
10.832462,5841
10.833462,4257
10.834459,4977
10.835462,5425
10.836461,4689
10.837462,12627
10.838459,11314
10.839461,7825
10.840459,7809
10.841460,6817
10.842460,12499
10.843462,6593
10.844460,16548
10.845460,10930
10.846460,4481
10.847460,8930
10.848460,7457
10.849462,8882
10.850460,4929
10.851460,14099
10.852460,32615
10.853460,9554
10.854462,6833
10.855460,5249
10.856460,5841
10.857461,24085
10.858460,9794
10.859461,8177
10.860460,4481
10.861461,10322
10.862461,16307
10.863462,13267
10.864462,11698
10.865477,7681
10.866467,35864
10.867463,26198
10.868464,6081
10.869462,19428
10.870461,24582
10.871462,25894
10.872458,15379
10.873460,7761
10.874459,10786
10.875461,9922
10.876459,4641
10.877460,4385
10.878460,4481
10.879461,9986
10.880459,8706
10.881461,5521
10.882460,30471
10.883460,6401
10.884460,14019
10.885462,10466
10.886462,15331
10.887460,13843
10.888461,11410
10.889460,4897
10.890459,7409
10.891460,4945
10.892460,8322
10.893460,7425
10.894462,14467
10.895460,7393
10.896460,6529
10.897460,9378
10.898460,8450
10.899460,5025
10.900461,5585
10.901460,6241
10.902461,6417
10.903463,6385
10.904460,10722
10.905460,13987
10.906460,5073
10.907460,14435
10.908462,23973
10.909461,7761
10.910460,23189
10.911460,18964
10.912461,17188
10.913462,30871
10.914460,27350
10.915460,6721
10.916459,5585
10.917461,7585
10.918461,10594
10.919460,4817
10.920460,14115
10.921463,6817
10.922458,5889
10.923460,6929
10.924460,4625
10.925462,17764
10.926459,19812
10.927461,24694
10.928461,16852
10.929475,5137
10.930464,8722
10.931459,7729
10.932460,18356
10.933460,45739
10.934460,49772
10.935462,37449
10.936462,12034
10.937460,10018
10.938461,12162
10.939461,9666
10.940459,9890
10.941461,7073
10.942460,5313
10.943459,11490
10.944461,4577
10.945461,24870
10.946462,8338
10.947460,4833
10.948459,18532
10.949461,12194
10.950461,4385
10.951460,14867
10.952461,13667
10.953462,16932
10.954463,9346
10.955460,22885
10.956462,27142
10.957460,5457
10.958460,5201
10.959461,7729
10.960461,6849
10.961460,5857
10.962460,6081
10.963460,8802
10.964462,9634
10.965461,9314
10.966462,11234
10.967460,8145
10.968460,4433
11.121971,9858
11.122917,4817
11.123645,4080
11.124343,5073
11.125041,4193
11.125805,8850
11.126498,4625
11.127190,4369
11.127881,5585
11.128594,6145
11.129279,9426
11.129971,9138
11.130664,7569
11.131354,5521
11.132053,4209
11.132751,3728
11.133447,4193
11.134161,5553
11.134861,10530
11.135562,10194
11.136254,4321
11.136954,7201
11.137654,6705
11.138353,5153
11.139050,4513
11.139751,6721
11.140459,8290
11.141460,7121
11.142461,5153
11.143459,4673
11.144461,8033
11.145462,4833
11.146460,6993
11.147460,5857
11.148459,5553
11.149459,5569
11.150461,8546
11.151460,6753
11.152458,11938
11.153460,9442
11.154461,13203
11.155463,5329
11.156461,9874
11.157460,4625
11.158460,6209
11.159462,4625
11.160459,6977
11.161459,8290
11.162459,4545
11.163459,4833
11.164460,8418
11.165460,5953
11.166461,13091
11.167461,6161
11.168461,13155
11.169460,7345
11.170461,6817
11.171462,5073
11.172461,5841
11.173462,4481
11.174459,6961
11.175459,6305
11.176460,13667
11.177460,8930
11.178460,5505
11.179462,5025
11.180461,6673
11.181461,4449
11.182461,9010
11.183462,4641
11.184457,10178
11.185478,3968
11.186463,4481
11.187460,8418
11.188462,7777
11.189459,5057
11.190458,4801
11.191461,6305
11.192458,5137
11.193461,5185
11.194458,5137
11.195461,5697
11.196460,4673
11.197460,4641
11.198460,5409
11.199462,5681
11.200463,4225
11.201460,4913
11.202459,5649
11.203459,5105
11.204459,4545
11.205460,4897
11.206461,4929
11.207459,10290
11.208460,8754
11.209460,6721
11.210459,4401
11.211459,8578
11.212460,8017
11.213461,4961
11.214459,7329
11.215460,19060
11.216461,6065
11.217462,8386
11.218459,4753
11.219461,4321
11.220460,6401
11.221458,6561
11.222461,6273
11.223458,4353
11.224460,4545
11.225461,4465
11.226461,4913
11.227460,4577
11.228458,4433
11.229460,5937
11.230460,6369
11.231460,6481
11.232460,5217
11.233460,4913
11.234462,5121
11.235463,4289
11.236460,6801
11.237459,4129
11.238462,8177
11.239460,4385
11.240461,4753
11.241459,10370
11.242458,8450
11.243458,7425
11.244461,5393
11.245462,5665
11.246460,5473
11.247460,5601
11.248461,4865
11.249478,4129
11.250466,4753
11.251461,7361
11.252460,4705
11.253461,7297
11.254459,8177
11.255460,4961
11.256460,4417
11.257461,4609
11.258460,5601
11.259458,3728
11.260461,4481
11.261460,4865
11.262461,9922
11.263461,5265
11.264462,7521
11.265460,10162
11.266462,4305
11.267462,5137
11.268460,6305
11.269461,5393
11.270459,5169
11.271460,6465
11.272460,5041
11.273462,8177
11.274458,5425
11.275458,4353
11.276460,4609
11.277462,6033
11.278460,4689
11.279460,5057
11.280461,4961
11.281460,4593
11.282458,4449
11.283460,5873
11.284461,4497
11.285457,7809
11.286461,5345
11.287460,6353
11.288459,4369
11.289459,7137
11.290461,7009
11.291461,5649
11.292462,4193
11.293460,7025
11.294458,7441
11.295460,5329
11.296458,4385
11.297460,4785
11.298461,5377
11.299460,6065
11.300461,4929
11.301458,4609
11.302460,6609
11.303461,4785
11.304458,5169
11.305461,4305
11.306460,5217
11.307460,5361
11.308460,4561
11.309460,4785
11.310461,5169
11.311458,5089
11.312462,4945
11.313472,4113
11.439266,3888
11.439777,4561
11.440049,3840
11.440305,3680
11.440566,4465
11.440836,4945
11.441238,4016
11.441503,3808
11.441756,3536
11.442026,4225
11.442277,6545
11.442539,5793
11.443460,4513
11.444461,4769
11.445460,4209
11.446462,4689
11.447460,5441
11.448460,6033
11.449459,4753
11.450460,4353
11.451461,4273
11.452460,7585
11.453460,5105
11.454459,5537
11.455459,5953
11.456460,5009
11.457461,6033
11.458460,4417
11.459461,4881
11.460460,4433
11.461459,6881
11.462463,5425
11.463458,5345
11.464460,5249
11.465459,5137
11.466460,4497
11.467460,5905
11.468460,4865
11.469460,4529
11.470460,4753
11.471460,7457
11.472460,8097
11.473460,8226
11.474460,5089
11.475460,4961
11.476460,5009
11.477460,6017
11.478459,5345
11.479462,4849
11.480461,4113
11.481461,5217
11.482461,4689
11.483462,5409
11.484459,6417
11.485460,4945
11.486461,4625
11.487461,4177
11.488460,4545
11.489461,4449
11.490459,6497
11.491460,4897
11.492461,5329
11.493462,5521
11.494459,4385
11.495461,4625
11.496461,6849
11.497462,5809
11.498459,4385
11.499462,3760
11.500460,4353
11.501460,6049
11.502459,4737
11.503458,4801
11.504460,5617
11.505477,3360
11.506464,4689
11.507461,5761
11.508461,6561
11.509461,4545
11.510460,4161
11.511458,4289
11.512459,4273
11.513460,5617
11.514459,4753
11.515461,4481
11.516461,4737
11.517460,5585
11.518460,4769
11.519459,4113
11.520460,4785
11.521462,4897
11.522460,5345
11.523460,5505
11.524460,5601
11.525460,4689
11.526461,4801
11.527459,4513
11.528460,4689
11.529460,4897
11.530462,4497
11.531460,3872
11.532462,5809
11.533458,9794
11.534460,7761
11.535460,4657
11.536460,4193
11.537460,5601
11.538460,4577
11.539458,5137
11.540459,6305
11.541460,4193
11.542461,4369
11.543458,4321
11.544460,4865
11.545459,6465
11.546462,4321
11.547460,6273
11.548462,5025
11.549461,4417
11.550460,4545
11.551461,6225
11.552460,5201
11.553460,4577
11.554462,5601
11.555460,4225
11.556460,4385
11.557461,5569
11.558461,5457
11.559459,4849
11.560459,6529
11.561460,5393
11.562460,4673
11.563461,4305
11.564460,4657
11.565459,4513
11.566459,7105
11.567460,4865
11.568461,4689
11.569489,4753
11.570467,5601
11.571460,7217
11.572460,7169
11.573461,7169
11.574459,4561
11.575460,5281
11.576460,5313
11.577460,6241
11.578462,5569
11.579460,3840
11.580460,5505
11.581460,5057
11.582460,5137
11.583462,4257
11.584462,4961
11.585460,5121
11.586459,5857
11.587462,5969
11.588460,4032
11.589460,4833
11.590461,5329
11.591461,4193
11.592462,5633
11.593461,4529
11.594460,4369
11.595461,3984
11.596460,4449
11.597461,5073
11.598461,5569
11.599460,5137
11.600461,4689
11.601460,4481
11.602461,4705
11.603460,4417
11.604460,4064
11.605460,4129
11.606458,6593
11.607460,6161
11.608461,6737
11.609461,4577
11.610461,5345
11.611460,4161
11.612459,4401
11.613460,4993
11.614459,6721
11.615460,5377
11.616460,5089
11.617460,4369
11.618459,4385
11.619461,4705
11.620460,5249
11.621460,4865
11.622460,9650
11.623457,6833
11.624461,5441
11.625460,5089
11.626460,4289
11.627461,3600
11.628458,7105
11.629461,5569
11.630459,4161
11.788524,4513
11.789170,4801
11.789615,4865
11.790027,4513
11.790434,4481
11.790902,3792
11.791301,3648
11.791709,3776
11.792114,5585
11.792538,5633
11.792945,5041
11.793348,4753
11.793756,4625
11.794161,4817
11.794570,3936
11.795460,4833
11.796458,4129
11.797460,4561
11.798460,3712
11.799460,5153
11.800462,4289
11.801458,3824
11.802459,3424
11.803460,5201
11.804461,4497
11.805459,3824
11.806460,3888
11.807461,4337
11.808460,6849
11.809461,4833
11.810458,6225
11.811461,4321
11.812459,3456
11.813460,3648
11.814460,4897
11.815462,4929
11.816460,5505
11.817460,4673
11.818460,5249
11.819461,5441
11.820460,6081
11.821461,4497
11.822460,3920
11.823460,4433
11.824461,5569
11.825485,5297
11.826465,4353
11.827460,4529
11.828461,4593
11.829460,3328
11.830460,3680
11.831460,3744
11.832458,4225
11.833461,4497
11.834459,3488
11.835460,5713
11.836460,4801
11.837461,6481
11.838461,6977
11.839460,5921
11.840460,4881
11.841460,4080
11.842460,3600
11.843460,3552
11.844459,5249
11.845459,4721
11.846460,4625
11.847460,4241
11.848460,4385
11.849459,3552
11.850460,4161
11.851461,4129
11.852460,3888
11.853462,4801
11.854459,3280
11.855461,3984
11.856462,4385
11.857460,5409
11.858459,5617
11.859462,5105
11.860461,4225
11.861459,3296
11.862459,3824
11.863462,4561
11.864461,5473
11.865460,4177
11.866461,4385
11.867460,4817
11.868461,4433
11.869460,3488
11.870460,3232
11.871461,5505
11.872460,4449
11.873459,3232
11.874458,3536
11.875461,4257
11.876458,4353
11.877461,7809
11.878461,5089
11.879460,3872
11.880461,5777
11.881460,4945
11.882459,3328
11.883461,4097
11.884460,4609
11.885459,3408
11.886459,4097
11.887462,5121
11.888461,4193
11.889479,3552
11.890465,5841
11.891464,4369
11.892459,4417
11.893460,4785
11.894459,3424
11.895459,3232
11.896458,3840
11.897460,6065
11.898459,4241
11.899462,3968
11.900460,3648
11.901462,6497
11.902461,6241
11.903460,4529
11.904460,3632
11.905461,3968
11.906460,3968
11.907461,4097
11.908462,4048
11.909460,3712
11.910460,4897
11.911460,4000
11.912459,3904
11.913460,3280
11.914460,5089
11.915460,3792
11.916461,4561
11.917458,4353
11.918461,5505
11.919459,5121
11.920460,3952
11.921462,4785
11.922460,3472
11.923460,3424
11.924460,4385
11.925462,4000
11.926460,4080
11.927458,3472
11.928460,3328
11.929459,4945
11.930459,3936
11.931458,3936
11.932461,4545
11.933460,9442
11.934460,5025
11.935461,4945
11.936462,4433
11.937459,3920
11.938459,5521
11.939459,3520
11.940460,4961
11.941461,4145
11.942460,5425
11.943461,4241
11.944460,3296
11.945459,3392
11.946459,3776
11.947458,4817
11.948461,3536
11.949460,4577
11.950462,5009
11.951459,3392
11.952460,3264
11.953477,3856
11.954462,5473
11.955460,3472
11.956458,3904
11.957460,6209
11.958461,4016
11.959459,3728
11.960460,4080
11.961460,2848
11.962458,3296
11.963459,4193
11.964461,4401
11.965461,8354
11.966460,3872
11.967459,4769
11.968460,4801
11.969458,5009
11.970459,3488
11.971461,3872
11.972460,5201
11.973461,3424
11.974460,3232
11.975460,6289
11.976461,3552
11.977461,4353
11.978459,5281
11.979459,3664
12.133107,4833
12.133941,3680
12.134529,3856
12.135089,4048
12.135652,3984
12.136272,8274
12.136833,7121
12.137389,5409
12.137957,5281
12.138536,5505
12.139094,4689
12.139656,4289
12.140209,4609
12.140775,4193
12.141329,3808
12.141891,4353
12.142453,3568
12.143034,3312
12.143600,6033
12.144508,5377
12.145466,7057
12.146460,4225
12.147462,4145
12.148459,4241
12.149461,4545
12.150461,3808
12.151461,4321
12.152460,5825
12.153460,7505
12.154460,3488
12.155460,3904
12.156460,7521
12.157460,3792
12.158461,4129
12.159459,5409
12.160462,3344
12.161461,4305
12.162459,4561
12.163458,5281
12.164461,3648
12.165458,3360
12.166461,6145
12.167461,5025
12.168460,3792
12.169461,3360
12.170461,4801
12.171461,5393
12.172458,4577
12.173462,3408
12.174461,3200
12.175459,4305
12.176459,4401
12.177461,4161
12.178462,4689
12.179458,3776
12.180461,3040
12.181460,4016
12.182459,4577
12.183459,3744
12.184460,3232
12.185457,4897
12.186460,4833
12.187459,3536
12.188460,3984
12.189461,3248
12.190459,3440
12.191460,3376
12.192459,4897
12.193459,4145
12.194459,5505
12.195460,7873
12.196460,4689
12.197459,4401
12.198460,3408
12.199459,3488
12.200461,4129
12.201461,3616
12.202458,3520
12.203461,3760
12.204462,6289
12.205462,4000
12.206457,3872
12.207461,5473
12.208510,3456
12.209462,4641
12.210461,3616
12.211458,7169
12.212462,5873
12.213460,3648
12.214461,3312
12.215459,5313
12.216458,4177
12.217462,3056
12.218459,3472
12.219461,4000
12.220461,3200
12.221461,5265
12.222461,4609
12.223460,6049
12.224461,3904
12.225461,3456
12.226460,3200
12.227459,3328
12.228463,4241
12.229458,4961
12.230462,3680
12.231460,3552
12.232460,4929
12.233461,3536
12.234460,5729
12.235459,4273
12.236459,3408
12.237459,4321
12.238461,3344
12.239461,3968
12.240460,5777
12.241461,4225
12.242461,4849
12.243458,4080
12.244461,4129
12.245460,3392
12.246462,5041
12.247458,5857
12.248460,6177
12.249461,4577
12.250459,4641
12.251459,4737
12.252461,4129
12.253462,4545
12.254460,3424
12.255458,3648
12.256460,3344
12.257460,5313
12.258459,4913
12.259461,3392
12.260459,4513
12.261461,4321
12.262460,3312
12.263461,4433
12.264458,3616
12.265460,5121
12.266459,4161
12.267459,4161
12.268458,3216
12.269462,3200
12.270460,3136
12.271462,4048
12.272506,3904
12.273470,4641
12.274465,5889
12.275461,3344
12.276460,3616
12.277460,4961
12.278463,3760
12.279460,4817
12.280460,6785
12.281462,3408
12.282460,5041
12.283460,5041
12.284459,3776
12.285460,3168
12.286460,4641
12.287460,5041
12.288460,6673
12.289460,7569
12.290462,5825
12.291461,4801
12.292462,3312
12.293459,3456
12.294459,5089
12.295462,3328
12.296460,5393
12.297462,5713
12.298460,3584
12.299458,4497
12.300462,5073
12.301460,3264
12.302461,3120
12.303462,3488
12.304460,3712
12.305462,5393
12.306461,4545
12.307460,3856
12.308459,5345
12.309460,5153
12.310459,3584
12.311462,5201
12.312460,5329
12.313460,3872
12.314460,3520
12.315459,3808
12.316460,4785
12.317458,4673
12.318460,3200
12.319462,4689
12.320462,4064
12.321461,4481
12.322460,3424
12.323460,3840
12.324458,4657
12.477553,4241
12.478530,5137
12.479271,4385
12.479996,4785
12.480713,3616
12.481505,4401
12.482218,5393
12.482937,3248
12.483659,4097
12.484393,4401
12.485116,5953
12.485840,4161
12.486559,5025
12.487279,5073
12.487999,4817
12.488720,4305
12.489444,4321
12.490192,4609
12.490916,3872
12.491643,4241
12.492365,3616
12.493092,3408
12.493819,4545
12.494548,5457
12.495274,2992
12.496004,3824
12.496736,4993
12.497469,5393
12.498461,3984
12.499460,4433
12.500459,3568
12.501460,3456
12.502460,4000
12.503459,3584
12.504460,5233
12.505462,3200
12.506460,5201
12.507459,3872
12.508462,3424
12.509460,3552
12.510460,3920
12.511461,4048
12.512460,5569
12.513460,5633
12.514461,4145
12.515458,3376
12.516459,3792
12.517461,3712
12.518459,3856
12.519462,4193
12.520460,6049
12.521460,4449
12.522460,3232
12.523460,4289
12.524459,5857
12.525460,4513
12.526461,3424
12.527462,3456
12.528617,4961
12.529467,4385
12.530463,3760
12.531460,4801
12.532460,3712
12.533461,3536
12.534460,3536
12.535459,4753
12.536460,4417
12.537461,5025
12.538460,4209
12.539461,4080
12.540461,3712
12.541460,4016
12.542458,4769
12.543460,3840
12.544460,3536
12.545462,5009
12.546460,4257
12.547462,4273
12.548463,4737
12.549458,4177
12.550460,3776
12.551459,3984
12.552460,3888
12.553460,4161
12.554458,3728
12.555460,5185
12.556462,3584
12.557459,3664
12.558460,5137
12.559460,5217
12.560462,4657
12.561459,4257
12.562458,3280
12.563461,3376
12.564462,4145
12.565460,6545
12.566460,6369
12.567460,6545
12.568458,4305
12.569460,4048
12.570461,4545
12.571461,4625
12.572459,3616
12.573461,4193
12.574459,5393
12.575461,3936
12.576461,3680
12.577461,3680
12.578461,3424
12.579462,3408
12.580460,5473
12.581461,3744
12.582460,4577
12.583460,4497
12.584462,3408
12.585460,4305
12.586461,3760
12.587460,4273
12.588460,4016
12.589459,3712
12.590460,3776
12.591460,3296
12.592459,6097
12.593475,4529
12.594468,4577
12.595462,4273
12.596461,3456
12.597459,3648
12.598462,3936
12.599462,5681
12.600460,5265
12.601460,3648
12.602459,4577
12.603460,4465
12.604458,3872
12.605460,4177
12.606460,4193
12.607459,3984
12.608458,4433
12.609461,4209
12.610459,4673
12.611459,3728
12.612461,3552
12.613459,5169
12.614460,4433
12.615458,4193
12.616462,3488
12.627015,5169
12.627251,5681
12.627479,4865
12.627689,4241
12.627901,4145
12.628120,4032
12.628332,3360
12.628549,4513
12.628767,3248
12.628982,3616
12.629459,4225
12.630460,3616
12.631460,3968
12.632460,3680
12.633458,3760
12.634461,3664
12.635461,6289
12.636461,5793
12.637460,3792
12.638463,3792
12.639460,3600
12.640460,3488
12.641458,5633
12.642458,4048
12.643459,4080
12.644462,4145
12.645460,5201
12.646460,4625
12.647461,3712
12.648461,3792
12.649459,3424
12.650461,3408
12.651460,4241
12.652460,3632
12.653460,5297
12.654460,5841
12.655460,4113
12.656462,3472
12.657481,3808
12.658467,3776
12.659459,4257
12.660459,5473
12.661460,3872
12.662460,3696
12.663459,4609
12.664460,3760
12.665460,3456
12.666459,4401
12.667461,4449
12.668461,3376
12.669458,4577
12.670461,4529
12.671460,3856
12.780382,7777
12.780939,4769
12.781266,4433
12.781571,4769
12.781865,4241
12.782227,4289
12.782524,4513
12.782818,4048
12.783115,4449
12.783437,4145
12.783741,3632
12.784037,3520
12.784461,3600
12.785478,4449
12.786467,3376
12.787461,3216
12.788459,5425
12.789461,4449
12.790459,6049
12.791459,3968
12.792459,4113
12.793461,4401
12.794459,5153
12.795461,4481
12.796460,4129
12.797462,5185
12.798457,3808
12.799460,3680
12.800461,4129
12.801458,3648
12.802459,3664
12.803461,7441
12.804460,4785
12.805461,3824
12.806461,3456
12.807458,4273
12.808462,4032
12.809460,4417
12.810460,4129
12.811460,4849
12.812462,3840
12.813460,3888
12.814462,4369
12.815462,4481
12.816461,3616
12.817460,3536
12.818460,3936
12.819461,3728
12.820461,3648
12.821460,3376
12.822461,6337
12.823459,4113
12.824460,4305
12.825458,4577
12.826462,3920
12.827461,4497
12.828460,4113
12.829461,3456
12.830463,3584
12.831461,3904
12.832461,4161
12.833457,5761
12.834460,4353
12.835460,3888
12.836460,3680
12.837461,3824
12.838461,4129
12.839459,3616
12.840460,3632
12.841460,3984
12.842458,4080
12.843462,5633
12.844461,4080
12.845461,3760
12.846460,4417
12.847460,3792
12.848462,4273
12.849477,4337
12.850466,3712
12.851464,3968
12.852462,4561
12.853460,4769
12.854459,4753
12.855460,4449
12.856461,4177
12.857462,4433
12.858460,3744
12.859462,4161
12.860459,3872
12.861460,4449
12.862459,4865
12.863460,3872
12.864460,5329
12.865461,3680
12.866461,4625
12.867461,4529
12.868459,5777
12.869461,4657
12.870463,3760
12.871460,3648
12.872460,3664
12.873461,3728
12.874460,3792
12.875460,5377
12.876460,4257
12.877460,3664
12.878459,3808
12.879460,4881
12.880459,5009
12.881461,3584
12.882460,5073
12.883459,5537
12.884461,3488
12.885460,4385
12.886459,4305
12.887460,5681
12.888460,4321
12.889460,3984
12.890458,4032
12.891461,4497
12.892459,4497
12.893460,3840
12.894462,3936
12.895460,4433
12.896460,4689
12.897460,3872
12.898460,4481
12.899458,5137
12.900462,3936
12.901458,4225
12.902460,5089
12.903461,5713
12.904460,4385
12.905462,3504
12.906459,3680
12.907460,4177
12.908462,3792
12.909460,4865
12.910459,3936
12.911462,4161
12.912460,4657
12.913478,4481
12.914465,3424
12.915461,3472
12.916460,4817
12.917460,3792
12.918462,3744
12.919458,4016
12.920459,3664
12.921460,3968
12.922460,3984
12.923458,4417
12.924460,4321
12.925460,4737
12.926459,4097
12.927458,5633
12.928459,4080
12.929457,3792
12.930460,4481
12.931462,4193
12.932458,5281
12.933461,4161
12.934460,3552
12.935460,3840
12.936460,4369
12.937458,4481
12.938459,4016
12.939458,4849
12.940459,3792
12.941460,4113
12.942457,4225
12.943459,4177
12.944460,3696
12.945462,3600
12.946460,5329
12.947460,5121
12.948459,3728
12.949460,4177
12.950460,4177
12.951460,6225
12.952462,4529
12.953460,3744
12.954460,4289
12.955459,6097
12.956462,4385
12.957460,3968
12.958462,4545
12.959460,4369
12.960462,3792
12.961459,4625
12.962460,4449
12.963460,4609
12.964461,4929
12.965460,4000
12.966460,3984
12.967460,3984
12.968460,4097
12.969460,4080
12.970458,3744
12.971459,4321
13.127957,3600
13.128668,3536
13.129151,4273
13.129613,3472
13.130062,3776
13.130580,4273
13.131029,4689
13.131481,5713
13.131935,5393
13.132403,5073
13.132861,4433
13.133314,4929
13.133773,4337
13.134223,4561
13.134680,5857
13.135460,4529
13.136461,4689
13.137459,5265
13.138462,4625
13.139460,4289
13.140460,4257
13.141459,3968
13.142460,4881
13.143460,4513
13.144460,4321
13.145459,3664
13.146462,3552
13.147461,4753
13.148460,3808
13.149460,3872
13.150460,4225
13.151460,3792
13.152460,3968
13.153459,3952
13.154460,3936
13.155462,4801
13.156459,5281
13.157460,3840
13.158460,3760
13.159461,4000
13.160460,3840
13.161460,4385
13.162460,4865
13.163460,4609
13.164461,3728
13.165461,3904
13.166460,4353
13.167460,3744
13.168459,4129
13.169484,4913
13.170462,4833
13.171462,3872
13.172461,3872
13.173462,3600
13.174458,4817
13.175460,4048
13.176463,6369
13.177461,4833
13.178461,3792
13.179458,4737
13.180461,4369
13.181458,4721
13.182460,4337
13.183461,3760
13.184460,4289
13.185460,4769
13.186460,4385
13.187460,4225
13.188460,4785
13.189460,4000
13.190460,3760
13.191461,4000
13.192460,4273
13.193459,4241
13.194460,5009
13.195460,4609
13.196461,3984
13.197460,3984
13.198461,4032
13.199462,3664
13.200462,3968
13.201460,4929
13.202460,5585
13.203461,5425
13.204458,4000
13.205460,3632
13.206461,4689
13.207460,4753
13.208460,5345
13.209459,4032
13.210461,4753
13.211459,5137
13.212460,4609
13.213461,4129
13.214460,3936
13.215461,3536
13.216458,4465
13.217460,4577
13.218460,4337
13.219463,4625
13.220461,4497
13.221462,3792
13.222460,3808
13.223461,4048
13.224460,4833
13.225459,5537
13.226460,4225
13.227460,4641
13.228461,4193
13.229459,4769
13.230460,3808
13.231461,3952
13.232459,4401
13.233478,4785
13.234467,4048
13.235462,3888
13.236463,5425
13.237459,4080
13.238461,4529
13.239461,4433
13.240463,3920
13.241460,6881
13.242460,4305
13.243459,6961
13.244459,3728
13.245460,4129
13.246458,5633
13.247461,4417
13.248460,4833
13.249461,4273
13.250463,3776
13.251459,4289
13.252461,3904
13.253459,4497
13.254460,4369
13.255459,6225
13.256461,4689
13.257460,5905
13.258462,5889
13.259457,5089
13.260458,4048
13.261459,5361
13.262460,3552
13.263458,6113
13.264462,3936
13.265459,4353
13.266461,4000
13.267459,3408
13.268460,4481
13.269458,4305
13.270461,6161
13.271462,3600
13.272459,4689
13.273460,4753
13.274462,3520
13.275458,6177
13.276460,5249
13.277460,6625
13.278462,4657
13.279458,4177
13.280460,4113
13.281460,4097
13.282460,4193
13.283459,4865
13.284459,5649
13.285461,4000
13.286458,4016
13.287458,3744
13.288460,4097
13.289462,5505
13.290457,5329
13.291463,4993
13.292461,3808
13.293462,3728
13.294461,4225
13.295460,4048
13.296459,4241
13.297475,3888
13.298466,4913
13.299460,3872
13.300459,4737
13.301462,6481
13.302460,5649
13.303460,7089
13.304460,5057
13.305462,4369
13.306460,4113
13.307461,4305
13.308462,4064
13.309462,4689
13.310462,3712
13.311459,4000
13.312461,3712
13.313461,4241
13.314460,4048
13.315462,4641
13.316462,5521
13.317462,4048
13.318461,3776
13.319460,4032
13.470217,4513
13.471083,4609
13.471723,3424
13.472333,4241
13.472937,4225
13.473608,4577
13.474208,4497
13.474814,4305
13.475418,4753
13.476047,4321
13.476652,4401
13.477260,4257
13.477871,4289
13.478481,4577
13.479086,4321
13.479701,4016
13.480313,4449
13.480944,3936
13.481556,5409
13.482165,4080
13.482780,4673
13.483461,4497
13.484460,4097
13.485460,4913
13.486460,4161
13.487460,4209
13.488458,4032
13.489480,4289
13.490465,3648
13.491461,6017
13.492463,4641
13.493460,5345
13.494460,4257
13.495459,4529
13.496460,4433
13.497460,4817
13.498460,6033
13.499460,5057
13.500462,4000
13.501461,4129
13.502458,4289
13.503461,5217
13.504461,4048
13.505459,4609
13.506461,4032
13.507460,4193
13.508461,4801
13.509460,4753
13.510460,5169
13.511461,4497
13.512460,4113
13.513460,4401
13.514460,5393
13.515462,4817
13.516460,4833
13.517460,5681
13.518462,4080
13.519461,3808
13.520462,4529
13.521460,4673
13.522461,4353
13.523461,4785
13.524459,4641
13.525461,5089
13.526462,4241
13.527462,4016
13.528461,4305
13.529459,4753
13.530461,4833
13.531462,4545
13.532460,8738
13.533461,5857
13.534458,5585
13.535460,4016
13.536460,4689
13.537459,4513
13.538460,6017
13.539462,5217
13.540460,4641
13.541461,4305
13.542460,4080
13.543460,4113
13.544461,4609
13.545459,4833
13.546462,4657
13.547462,5409
13.548462,4433
13.549459,4753
13.550462,4305
13.551461,4000
13.552459,4753
13.553485,5169
13.554464,4513
13.555462,4032
13.556459,4000
13.557458,4000
13.558460,5265
13.559459,4273
13.560460,4609
13.561461,4032
13.562460,6113
13.563461,5697
13.564462,4545
13.565459,4417
13.566461,4225
13.567462,4161
13.568462,4321
13.569461,4080
13.570460,4657
13.571462,4064
13.572460,4097
13.573460,4145
13.574461,4048
13.575460,4481
13.576462,5185
13.577460,5681
13.578458,5089
13.579461,4625
13.580459,4289
13.581460,4945
13.582460,4705
13.583461,3936
13.584460,4449
13.585460,5105
13.586459,4177
13.587460,5377
13.588458,4529
13.589462,5121
13.590462,3904
13.591460,3840
13.592461,4433
13.593460,5025
13.594461,4657
13.595459,5505
13.596461,4577
13.597462,4449
13.598460,4401
13.599460,4337
13.600459,4016
13.601458,5121
13.602460,5457
13.603459,4273
13.604460,5377
13.605460,4753
13.606461,4225
13.607459,4833
13.608462,5121
13.609461,4369
13.610458,4433
13.611463,4865
13.612462,6033
13.613460,4657
13.614460,4641
13.615461,4385
13.616460,5345
13.617479,3632
13.618466,4881
13.619462,4064
13.620460,3968
13.621459,4497
13.622460,4000
13.623461,4016
13.624458,6833
13.625460,7073
13.626458,5345
13.627461,5937
13.628459,5985
13.629462,4369
13.630460,4497
13.631461,4241
13.632460,4705
13.633461,4449
13.634459,4129
13.635462,4481
13.636459,4577
13.637457,4465
13.638459,4113
13.639460,4417
13.640459,4961
13.641458,4945
13.642460,4673
13.643461,5665
13.644459,4737
13.645461,4385
13.646461,3792
13.647463,4016
13.648458,4129
13.649462,5905
13.650460,5121
13.651459,4289
13.652461,4145
13.653459,4080
13.654460,5729
13.655461,4801
13.656460,4080
13.657460,4977
13.658460,5777
13.659461,4401
13.660461,4097
13.661460,5665
13.775339,7473
13.776364,5297
13.777161,4369
13.777941,3872
13.778712,4561
13.779552,4113
13.780314,5361
13.781079,3600
13.781850,3728
13.782634,5473
13.783397,4929
13.784168,3680
13.784939,3936
13.785713,4145
13.786485,4705
13.787252,3616
13.788024,3632
13.788821,4000
13.789594,5281
13.790366,4369
13.791138,4305
13.791913,4545
13.792692,4801
13.793474,3552
13.794248,4849
13.795028,3504
13.795807,5329
13.796588,5777
13.797366,4257
13.798146,4000
13.798926,3552
13.799712,4193
13.800497,4032
13.801318,4113
13.802100,3888
13.802884,5313
13.803668,5265
13.804459,5521
13.805460,4048
13.806460,4817
13.807460,4369
13.808459,4497
13.809482,4369
13.810469,4385
13.811465,4769
13.812461,5633
13.813459,5457
13.814460,4737
13.815458,5137
13.816460,5361
13.817462,4369
13.818458,4257
13.819462,4481
13.820461,4129
13.821460,4048
13.822460,4449
13.823459,4305
13.824461,5633
13.825460,4401
13.826460,5297
13.827461,4257
13.828459,4673
13.829460,4641
13.830460,7345
13.831459,6289
13.841755,7313
13.841984,6993
13.842195,5937
13.842405,5297
13.842624,4417
13.842835,4481
13.843048,3664
13.843259,3872
13.843485,4785
13.843702,4032
13.844460,4273
13.845461,4353
13.846461,6209
13.847460,6561
13.848459,4945
13.849460,5249
13.850459,5201
13.851461,4289
13.852460,4353
13.853460,4225
13.854460,4993
13.855459,5009
13.856462,4257
13.857460,4064
13.858460,4032
13.859460,5249
13.860459,6081
13.861461,4465
13.862458,4321
13.863461,4305
13.864460,4032
13.865461,5713
13.866460,4865
13.867461,3728
13.868460,4016
13.869459,5873
13.870461,4705
13.871460,5505
13.872476,4513
13.873467,3904
13.874461,4193
13.875460,5569
13.876462,4865
