Tempo(s),EMG_Value
0.005007,2272
0.006522,2816
0.006898,3296
0.007848,3392
0.008845,3376
0.009843,3536
0.010842,3616
0.011844,4177
0.012845,3408
0.013842,4545
0.014843,4257
0.015843,3488
0.016844,4048
0.017844,3920
0.018844,3872
0.019843,4961
0.020845,3600
0.021842,3872
0.022841,3168
0.023844,3136
0.024843,4465
0.025842,3664
0.026843,3424
0.027843,3552
0.028844,3328
0.029843,3552
0.030845,3600
0.031845,3680
0.032845,4032
0.033843,3968
0.034842,3600
0.035844,3568
0.036844,3984
0.037841,3392
0.038842,3728
0.039864,3264
0.040849,3296
0.041846,3456
0.042844,3616
0.043843,3392
0.044845,3376
0.045844,3616
0.046843,3552
0.047843,3344
0.048843,3552
0.049843,3264
0.050844,4993
0.051845,4113
0.052844,4993
0.053843,3712
0.054845,3792
0.055844,3984
0.056842,3344
0.057845,3536
0.058843,4048
0.059846,3568
0.060843,3376
0.061843,4609
0.062843,3552
0.063845,3536
0.064843,3296
0.065844,3632
0.066845,3616
0.067844,3408
0.068841,3344
0.069842,2704
0.070842,3168
0.071845,4625
0.072845,4129
0.073842,3168
0.074843,3712
0.075845,3472
0.076843,3424
0.077843,4016
0.078843,4000
0.079843,3488
0.080844,3456
0.081843,4513
0.082843,4401
0.083842,4048
0.084844,4016
0.085843,2768
0.086843,3408
0.087843,3776
0.088841,3984
0.089843,3552
0.090843,3408
0.091844,3872
0.092843,3888
0.093842,3584
0.094843,4064
0.095844,3536
0.096844,4032
0.097843,3712
0.098842,3584
0.099841,2848
0.100843,3360
0.101845,2704
0.102843,4401
0.103867,3104
0.104848,3552
0.105844,3728
0.106842,3712
0.107843,3520
0.108842,3840
0.109844,3616
0.110841,3488
0.111843,3232
0.112843,4689
0.113843,3568
0.114843,3232
0.115842,3504
0.116845,4257
0.117843,2976
0.118842,3120
0.119844,3664
0.120841,4048
0.121844,3696
0.122843,3808
0.123842,4129
0.124844,4161
0.125845,3424
0.126843,3360
0.127843,3424
0.128844,3344
0.129842,3408
0.130843,3840
0.131845,3264
0.132843,4561
0.133842,3488
0.134842,2960
0.135841,3104
0.136842,3424
0.137843,3664
0.138842,3392
0.139843,3536
0.140843,4257
0.141841,3808
0.142843,4000
0.143844,3632
0.144841,2496
0.145843,3488
0.146843,3872
0.147845,3744
0.148844,3104
0.149843,2896
0.150845,3904
0.151843,3664
0.152845,3328
0.153843,3088
0.154845,3312
0.155843,2992
0.156843,3168
0.157843,3424
0.158841,4177
0.159844,3648
0.160844,3152
0.161843,3296
0.162842,4225
0.163843,3744
0.164843,3264
0.165843,2832
0.166843,3456
0.167857,2640
0.168848,3600
0.169845,4497
0.170842,3456
0.171843,3616
0.172841,2832
0.173843,3360
0.174843,3600
0.175844,3360
0.176843,3392
0.177844,3456
0.178843,3728
0.179842,3328
0.180844,4433
0.181843,2592
0.182843,3792
0.183842,3968
0.184843,3760
0.185844,3840
0.186844,3888
0.187840,3136
0.188843,3520
0.189845,3456
0.190841,3136
0.191844,3456
0.192843,3392
0.193844,3712
0.194842,3152
0.195844,4145
0.196844,4705
0.197843,2944
0.198844,3392
0.199845,3456
0.200843,3296
0.201843,3920
0.202844,3744
0.203843,3472
0.327029,2992
0.327657,3904
0.328068,3296
0.328451,3376
0.328828,3424
0.329266,3152
0.329634,2976
0.330011,2992
0.330383,2976
0.330776,3344
0.331153,3088
0.331527,3456
0.331907,3120
0.332281,2944
0.332844,3488
0.333843,3600
0.334844,3600
0.335843,3376
0.336842,4000
0.337844,4000
0.338843,2912
0.339843,5073
0.340843,4369
0.341841,2960
0.342843,2752
0.343842,2464
0.344842,2304
0.345841,2880
0.346842,2656
0.347841,3296
0.348843,4401
0.349842,2736
0.350841,2576
0.351844,3408
0.352842,2864
0.353844,3392
0.354843,3216
0.355844,3216
0.356843,3200
0.357843,2960
0.358843,2784
0.359870,3088
0.360846,3984
0.361845,3600
0.362843,2944
0.363844,3840
0.364843,3120
0.365843,2496
0.366844,3168
0.367842,2256
0.368843,2736
0.369843,4753
0.370845,4048
0.371841,2816
0.372843,4833
0.373843,3120
0.374845,6209
0.375843,5009
0.376843,3328
0.377844,3184
0.378843,2864
0.379845,3184
0.380843,3264
0.381845,3648
0.382842,3264
0.383844,3136
0.384843,3376
0.385845,4161
0.386845,3296
0.387845,3584
0.388841,3488
0.389843,2624
0.390843,2528
0.391842,3632
0.392843,3328
0.393842,4705
0.394845,3728
0.395843,3648
0.396842,3088
0.397843,2576
0.398842,3280
0.399843,3152
0.400842,2912
0.401843,3536
0.402841,2944
0.403843,2848
0.404843,2624
0.405845,2848
0.406845,3552
0.407844,3744
0.408843,2736
0.409842,2768
0.410843,2720
0.411842,2832
0.412843,4353
0.413842,3136
0.414844,3024
0.415842,3472
0.416843,2736
0.417845,3280
0.418841,3280
0.419844,3024
0.420844,3088
0.421843,3088
0.422845,2976
0.423862,3152
0.424851,3888
0.425843,3120
0.426844,2736
0.427841,2752
0.428843,3392
0.429843,3200
0.430844,3200
0.431844,3728
0.432843,3568
0.433844,5841
0.434841,5297
0.435842,2944
0.436842,2656
0.437843,2832
0.438841,2720
0.439843,3232
0.440845,3520
0.441844,3392
0.442845,3632
0.443845,3248
0.444843,2336
0.445844,2624
0.446841,3936
0.447843,2656
0.448845,3296
0.449843,2880
0.450843,4609
0.451844,3664
0.452843,2432
0.453845,3136
0.454843,3120
0.455843,3008
0.456843,3088
0.457843,2944
0.458843,3728
0.459842,3648
0.460841,4657
0.461844,2976
0.462843,3920
0.463843,4801
0.464842,2976
0.465842,2432
0.466843,2320
0.467842,2480
0.468843,2816
0.469841,2960
0.470842,3520
0.471843,3648
0.472845,4048
0.473843,2368
0.474842,2496
0.475844,2720
0.476843,2768
0.477843,2384
0.478841,2496
0.479843,4929
0.480844,2992
0.481843,2176
0.482844,2848
0.483845,3104
0.484841,3600
0.485843,2960
0.486843,3312
0.487862,3952
0.488850,4641
0.489846,4593
0.490845,3680
0.491843,2608
0.492843,3488
0.493843,3280
0.494845,5457
0.495845,6289
0.496844,3824
0.497844,4705
0.498843,5505
0.499843,3232
0.500843,3872
0.501840,5057
0.502843,5313
0.503843,4513
0.504843,4113
0.505841,3920
0.506843,3584
0.507843,2624
0.508843,3056
0.509843,4417
0.510843,4433
0.511842,2336
0.512843,2656
0.513844,2576
0.514844,3424
0.515842,2352
0.516843,2704
0.517843,4689
0.682527,3056
0.683316,2784
0.683868,2672
0.684400,3552
0.684928,3392
0.685521,2720
0.686051,3344
0.686578,2224
0.687107,3296
0.687649,3248
0.688182,3120
0.688712,2768
0.689246,2528
0.689776,3536
0.690314,3296
0.690854,4032
0.691383,3504
0.691937,3392
0.692845,2528
0.693845,2944
0.694842,3312
0.695842,2496
0.696845,2640
0.697843,2496
0.698843,2864
0.699843,2832
0.700842,2496
0.701844,2880
0.702842,2560
0.703842,2688
0.704844,2512
0.705842,2544
0.706844,2496
0.707844,2688
0.708843,2896
0.709842,3968
0.710844,3200
0.711843,2432
0.712843,2416
0.713843,2624
0.714843,2768
0.715841,2992
0.716842,2528
0.717844,2608
0.718842,2832
0.719844,3232
0.720844,2880
0.721842,3408
0.722843,2384
0.723843,2352
0.724843,2768
0.725843,2976
0.726842,2400
0.727841,3024
0.728844,2640
0.729843,2560
0.730842,2800
0.731842,2560
0.732841,2736
0.733842,2816
0.734845,2640
0.735842,2560
0.736842,2576
0.737845,2640
0.738844,2992
0.739843,2768
0.740843,2752
0.741843,2816
0.742931,4016
0.743844,2928
0.744842,3168
0.745843,3456
0.746843,2832
0.747844,3424
0.748841,2560
0.749844,2816
0.750844,2624
0.751843,2736
0.752843,2864
0.753845,2784
0.754840,2656
0.755843,2384
0.756843,3712
0.757843,3392
0.758843,3520
0.759845,2736
0.760843,2736
0.761843,4048
0.762844,2640
0.763845,2592
0.764842,2944
0.765844,3136
0.766841,3376
0.767842,2640
0.768845,3968
0.769842,2480
0.770843,2576
0.771843,3136
0.772845,2864
0.773843,2976
0.774842,2464
0.775844,2720
0.776843,2688
0.777843,2784
0.778843,2784
0.779843,2400
0.780843,2976
0.781845,2624
0.782845,2432
0.783844,2880
0.784841,2704
0.785843,2944
0.786843,2592
0.787843,2784
0.788843,2752
0.789842,3136
0.790844,2768
0.791843,2816
0.792843,2576
0.793841,2608
0.794843,2848
0.795841,2752
0.796842,3024
0.797843,2832
0.798843,2848
0.799843,3232
0.800842,2896
0.801842,2816
0.802845,3296
0.803841,2672
0.804843,2784
0.805844,2848
0.806896,3072
0.807859,3216
0.808845,3120
0.809842,3456
0.810845,2656
0.811845,2560
0.812843,2944
0.813841,2864
0.814845,2800
0.815844,2560
0.816844,2688
0.817844,2864
0.818844,2736
0.819842,3920
0.820844,5537
0.821844,4497
0.822843,3648
0.823842,2464
0.824843,2480
0.825843,2960
0.826843,2496
0.827843,2432
0.828843,2256
0.829843,2496
0.830843,4945
0.831844,3088
0.832844,3376
0.833843,3136
0.834842,2912
0.835845,2304
0.836842,2720
0.837843,3040
0.838845,2480
0.839845,2544
0.840841,2272
0.841843,2752
0.842843,2544
0.843844,2592
0.844843,2704
0.845843,2480
0.846842,2800
0.847843,2656
0.848843,2528
0.849843,2592
0.850843,2784
0.851840,3232
0.852842,2880
0.853843,3024
0.854843,2624
0.855843,2656
0.856841,2912
0.857844,3072
0.858844,2576
0.859843,2896
0.860840,3552
0.861844,3568
0.862842,2528
0.863842,3616
0.864843,2912
0.865843,2864
0.866843,3552
0.867843,2704
0.868843,2720
0.869843,2992
0.870843,2832
0.871855,3152
0.872852,3552
0.873843,2704
1.071163,2704
1.072109,3120
1.072825,3264
1.073510,3232
1.074197,2880
1.074943,3024
1.075617,2992
1.076298,2688
1.076977,3840
1.077678,5009
1.078361,4641
1.079047,3024
1.079727,4337
1.080414,2992
1.081100,2848
1.081784,3152
1.082476,4289
1.083186,4097
1.083873,3152
1.084554,3152
1.085243,2832
1.085929,3552
1.086618,3296
1.087311,3360
1.088007,3552
1.088845,2848
1.089843,2624
1.090842,3040
1.091843,3872
1.092842,3696
1.093844,3120
1.094843,2608
1.095844,2560
1.096844,3376
1.097843,3104
1.098842,3072
1.099841,3200
1.100844,2768
1.101844,2928
1.102842,2720
1.103844,2960
1.104843,3408
1.105842,3056
1.106842,4385
1.107844,3728
1.108845,3328
1.109843,3376
1.110842,3344
1.111845,2720
1.112843,3120
1.113843,2784
1.114844,2912
1.115843,3072
1.116841,3824
1.117841,3568
1.118843,2960
1.119843,3072
1.120843,3376
1.121844,3264
1.122842,2720
1.123843,2912
1.124842,2960
1.125841,3552
1.126845,3824
1.127868,3216
1.128850,2592
1.129847,4097
1.130844,2896
1.131843,2944
1.132845,2832
1.133842,3248
1.134842,3520
1.135845,4529
1.136842,2880
1.137839,3920
1.138843,2976
1.139843,3136
1.140843,3424
1.141843,3344
1.142843,3216
1.143844,3920
1.144842,2720
1.145844,4401
1.146844,2992
1.147840,2704
1.148844,3072
1.149842,3216
1.150842,3248
1.151840,3248
1.152844,3344
1.153844,3152
1.154844,2768
1.155842,2720
1.156843,2976
1.157843,3888
1.158844,2848
1.159843,3472
1.160843,2576
1.161843,3040
1.162843,3088
1.163845,2640
1.164841,3664
1.165844,3024
1.166844,3120
1.167844,3376
1.168841,3632
1.169843,2560
1.170842,2656
1.171843,3344
1.172844,3200
1.173844,3344
1.174842,2896
1.175842,2736
1.176842,2880
1.177843,2976
1.178842,3200
1.179841,3360
1.180843,3568
1.181844,2832
1.182843,3024
1.183843,3920
1.184843,2976
1.185842,2768
1.186845,3008
1.187844,2752
1.188842,2832
1.189845,4433
1.190842,3904
1.191859,3088
1.192844,2576
1.193844,4353
1.194843,3312
1.195841,3328
1.196844,2752
1.197844,2960
1.198845,2848
1.199842,3520
1.200842,2816
1.201843,2512
1.202843,3264
1.203844,2816
1.204843,4833
1.205844,3552
1.206843,3008
1.207843,3248
1.208843,3008
1.209843,4337
1.210842,3312
1.211841,2960
1.212843,2880
1.213844,2704
1.214843,3664
1.215844,3232
1.216844,2992
1.217842,3008
1.218843,2784
1.219843,2960
1.220843,3088
1.221845,3040
1.222843,2784
1.223844,3584
1.224843,6017
1.225840,5361
1.226844,4337
1.227842,3776
1.228842,3536
1.229842,3424
1.230844,3152
1.231843,3008
1.232845,3616
1.233845,3600
1.234843,3248
1.235845,2928
1.236841,3536
1.237844,3568
1.238841,3216
1.239845,3664
1.240843,3344
1.241845,4705
1.242843,2816
1.243844,2976
1.244843,2560
1.245844,2688
1.246843,3456
1.247843,2848
1.248843,4257
1.249844,4016
1.250843,2912
1.251843,3872
1.252843,3248
1.253842,5105
1.254844,3552
1.255856,3488
1.256848,2976
1.257841,3216
1.258842,2896
1.259845,3120
1.260843,2912
1.261843,3312
1.262844,2960
1.385512,3072
1.386025,3088
1.386301,2864
1.386554,3536
1.386795,3152
1.387070,3504
1.387307,4641
1.387546,4449
1.387781,4785
1.388041,3984
1.388282,4048
1.388843,3360
1.389845,3520
1.390842,2784
1.391841,3296
1.392843,2944
1.393843,3984
1.394842,2784
1.395845,2864
1.396843,3376
1.397842,3888
1.398843,3488
1.399843,3536
1.400843,2784
1.401841,3408
1.402845,2864
1.403844,4097
1.404843,2816
1.405843,3904
1.406842,4193
1.407844,3232
1.408842,3120
1.409845,3200
1.410845,2608
1.411843,4417
1.412845,3056
1.413844,4064
1.414840,2976
1.415842,4865
1.416843,2720
1.417844,2544
1.418845,3648
1.419843,3152
1.420842,2976
1.421843,2864
1.422843,3488
1.423843,2752
1.424845,3584
1.425842,3216
1.426844,2896
1.427845,3200
1.428842,2976
1.429843,4929
1.430839,4273
1.431844,3056
1.432841,3392
1.433844,2864
1.434844,2688
1.435844,2864
1.436843,3680
1.437843,3648
1.438845,3280
1.439845,3168
1.440844,3424
1.441844,2992
1.442841,3152
1.443843,3216
1.444843,4401
1.445843,3872
1.446864,3424
1.447851,2736
1.448844,3152
1.449842,3488
1.450843,2992
1.451845,3376
1.452843,3616
1.453845,3488
1.454843,2880
1.455844,3760
1.456843,3488
1.457843,3760
1.458842,3040
1.459843,3216
1.460843,3632
1.461843,3712
1.462842,3008
1.463844,2656
1.464843,2896
1.465843,3072
1.466843,4417
1.467843,4545
1.468843,3024
1.469843,3056
1.470841,3872
1.471842,3456
1.472840,3680
1.473844,3232
1.474842,3456
1.475844,3024
1.476843,3088
1.477843,3376
1.478844,2832
1.479846,2656
1.480844,2656
1.481843,3248
1.482843,3856
1.483844,2976
1.484841,4353
1.485844,4048
1.486843,5377
1.487845,4497
1.488843,4097
1.489844,2752
1.490844,2960
1.491843,3104
1.492842,3296
1.493844,3472
1.494845,2736
1.495843,2880
1.496844,3072
1.497843,2944
1.498844,2976
1.499844,3216
1.500844,3456
1.501843,3520
1.502842,3248
1.503843,3472
1.504845,2784
1.505843,2864
1.506845,3504
1.507845,3120
1.508841,3136
1.509845,3264
1.510884,3936
1.511849,3200
1.512844,3312
1.513845,3728
1.514843,3408
1.515845,3488
1.516843,2848
1.517842,2848
1.518843,3408
1.519841,4497
1.520843,3216
1.521843,3136
1.522842,2896
1.523845,2544
1.524844,3776
1.525844,4417
1.526844,3024
1.527843,3392
1.528843,3728
1.529843,4321
1.530844,3216
1.531842,3472
1.532843,3392
1.533845,2960
1.534843,3712
1.535844,3712
1.536843,3360
1.537843,3424
1.538843,3296
1.539843,3184
1.540842,3072
1.541843,3696
1.542843,3152
1.543843,3072
1.544843,4385
1.545843,4177
1.546843,4000
1.547843,3520
1.548841,3168
1.549843,2992
1.550843,3088
1.551845,3536
1.552843,3888
1.553841,3376
1.554842,3344
1.555843,2944
1.556843,2912
1.557843,3136
1.558843,3376
1.559844,2896
1.560843,2832
1.561842,4881
1.562845,3904
1.563844,3104
1.564845,3216
1.565843,4193
1.566842,4897
1.567843,3120
1.568843,4273
1.569843,3120
1.570844,3184
1.571843,3168
1.572843,3344
1.573844,4000
1.574891,3328
1.575851,2864
1.576844,2880
1.732999,4545
1.733658,3776
1.734087,3376
1.734479,3312
1.734877,3040
1.735334,4129
1.735722,3984
1.736122,3296
1.736514,3504
1.736930,3296
1.737324,3104
1.737715,3424
1.738116,3744
1.738513,4833
1.738910,4609
1.739843,2960
1.740845,4032
1.741846,4016
1.742843,3840
1.743843,3104
1.744842,3360
1.745844,2992
1.746841,3168
1.747844,3136
1.748841,3168
1.749845,5025
1.750841,4064
1.751843,2976
1.752843,3408
1.753844,4177
1.754845,4080
1.755843,3360
1.756844,3264
1.757844,4193
1.758845,3968
1.759843,3328
1.760844,3360
1.761843,3136
1.762841,3904
1.763844,3456
1.764844,3344
1.765843,5025
1.766844,4080
1.767865,3456
1.768852,4064
1.769848,3680
1.770842,3200
1.771845,3536
1.772844,3360
1.773843,3424
1.774844,3152
1.775842,3536
1.776844,3344
1.777844,3888
1.778842,3632
1.779845,3520
1.780843,3120
1.781843,4401
1.782843,4064
1.783842,3808
1.784845,3904
1.785843,4289
1.786844,3136
1.787841,2976
1.788844,3520
1.789843,3136
1.790844,3680
1.791844,4257
1.792843,3280
1.793843,3296
1.794843,3024
1.795844,2880
1.796844,3216
1.797844,3696
1.798845,3584
1.799842,3600
1.800842,3408
1.801844,3264
1.802843,3568
1.803843,3408
1.804842,3552
1.805841,3312
1.806843,3296
1.807843,3360
1.808842,3104
1.809842,3152
1.810842,3728
1.811844,3792
1.812845,3120
1.813843,4064
1.814842,3648
1.815843,3168
1.816845,3008
1.817845,4337
1.818843,4257
1.819843,2976
1.820845,3760
1.821842,3392
1.822843,3072
1.823843,3632
1.824841,3312
1.825844,3760
1.826842,2992
1.827843,3040
1.828843,5761
1.829844,4193
1.830843,3168
1.831861,3488
1.832848,3552
1.833845,3504
1.834842,3168
1.835843,3616
1.836845,4449
1.837843,4097
1.838844,3664
1.839843,3408
1.840844,2960
1.841842,2896
1.842844,3536
1.843844,3424
1.844844,3440
1.845843,3680
1.846844,3712
1.847844,3664
1.848842,3920
1.849844,3392
1.850844,3552
1.851843,3680
1.852843,3456
1.853843,3776
1.854842,3408
1.855844,3040
1.856844,3312
1.857844,3280
1.858844,3248
1.859843,3360
1.860843,3264
1.861845,3600
1.862841,3872
1.863844,4513
1.864843,3840
1.865843,3376
1.866842,3008
1.867843,3296
1.868843,3920
1.869843,3760
1.870844,3328
1.871843,3648
1.872843,3344
1.873843,2992
1.874844,3680
1.875844,4129
1.876843,3360
1.877843,4161
1.878841,3840
1.879843,3808
1.880844,3040
1.881843,2960
1.882844,4289
1.883843,3376
1.884843,3328
1.885844,3648
1.886845,3136
1.887842,4849
1.888844,4673
1.889843,3712
1.890842,3296
1.891843,3296
1.892843,3264
1.893842,4417
1.894843,4241
1.895862,6033
1.896848,3296
1.897845,3040
1.898843,3968
1.899844,3312
1.900843,4625
1.901843,4705
1.902843,5089
1.903844,4225
1.904843,4129
1.905843,3472
1.906843,4417
1.907843,4417
1.908844,3456
1.909844,4497
1.910843,3616
1.911844,3248
1.912843,3680
1.913843,5825
1.914842,4577
1.915842,4289
1.916845,3824
1.917844,3792
1.918843,3728
1.919844,3776
1.920843,3296
1.921844,4353
1.922844,3680
1.923842,4000
2.069735,4785
2.070551,4032
2.071139,4257
2.071689,5281
2.072240,4129
2.072856,3696
2.073399,3024
2.073946,3936
2.074490,5505
2.075062,4961
2.075607,3904
2.076162,4097
2.076706,3488
2.077259,2704
2.077810,2976
2.078356,2912
2.078905,3264
2.079479,4865
2.080033,3872
2.080845,3312
2.081843,4097
2.082842,3648
2.083843,3936
2.084843,4513
2.085843,4000
2.086845,3152
2.087867,3776
2.088854,4353
2.089847,4929
2.090842,3104
2.091843,3232
2.092843,3904
2.093841,4417
2.094843,4129
2.095844,3424
2.096843,3376
2.097841,3312
2.098843,3200
2.099844,3328
2.100842,3152
2.101843,4673
2.102844,5633
2.103842,4497
2.104843,4529
2.105842,3552
2.106843,2976
2.107844,3616
2.108842,4145
2.109843,4129
2.110844,3216
2.111843,3360
2.112842,3808
2.113844,4625
2.114843,3376
2.115845,3408
2.116843,4801
2.117842,3600
2.118845,3536
2.119845,3584
2.120843,3328
2.121844,3472
2.122843,3296
2.123843,4497
2.124843,3456
2.125842,3504
2.126841,3552
2.127843,3328
2.128844,4577
2.129842,4305
2.130843,4241
2.131843,3232
2.132845,3296
2.133844,3744
2.134844,3696
2.135844,3200
2.136845,3568
2.137845,4433
2.138843,3152
2.139842,4241
2.140845,3424
2.141841,3600
2.142844,3840
2.143842,3728
2.144845,3248
2.145843,3312
2.146845,3408
2.147844,3104
2.148845,3968
2.149843,4080
2.150844,3568
2.151861,3760
2.152850,2896
2.153845,3040
2.154843,3280
2.155843,4737
2.156843,4385
2.157843,3280
2.158844,3456
2.159843,4529
2.160845,3552
2.161841,3360
2.162843,3280
2.163844,3216
2.164845,3536
2.165845,3776
2.166843,3792
2.167842,3664
2.168843,3920
2.169844,3984
2.170843,4000
2.171841,3424
2.172843,3296
2.173844,3264
2.174844,3504
2.175842,4833
2.176844,3504
2.177844,3104
2.178843,4032
2.179842,4369
2.180843,3808
2.181843,4048
2.182843,4305
2.183843,3920
2.184844,3280
2.185843,3296
2.186843,3472
2.187841,3936
2.188844,3792
2.189842,3632
2.190844,3664
2.191842,3808
2.192843,3328
2.193843,3248
2.194843,3520
2.195842,4769
2.196843,3264
2.197842,3232
2.198844,3664
2.199843,3520
2.200842,4048
2.201843,3840
2.202843,3296
2.203843,4064
2.204844,4257
2.205843,3824
2.206843,3888
2.207842,3504
2.208843,3328
2.209844,3504
2.210844,3392
2.211842,3360
2.212843,3424
2.213844,3904
2.214843,3440
2.215858,3664
2.216851,3712
2.217846,3216
2.218845,3840
2.219842,3632
2.220842,3968
2.221843,3744
2.222842,3392
2.223843,3552
2.224841,3664
2.225843,4513
2.226843,3696
2.227842,4273
2.228841,3504
2.229843,5009
2.230845,3360
2.231844,3536
2.232842,5057
2.233841,4097
2.234844,3472
2.235843,3424
2.236842,3328
2.237843,5441
2.238843,4289
2.239844,3280
2.240843,3760
2.241844,3104
2.242844,3680
2.243843,3920
2.244843,3616
2.245844,3792
2.246843,3232
2.247842,4257
2.248842,4273
2.249844,3600
2.250842,3776
2.251842,3616
2.252844,3536
2.253843,3936
2.254844,3440
2.255842,3392
2.256842,3616
2.257841,3472
2.258843,3216
2.259843,3280
2.260845,3808
2.368020,3552
2.368978,3072
2.369728,2896
2.370448,3232
2.371156,3888
2.371930,4865
2.372635,2768
2.373339,3232
2.374046,3312
2.374767,4257
2.375474,4401
2.376182,2640
2.376889,3616
2.377597,3296
2.378309,3104
2.379023,3328
2.379731,2720
2.380465,4433
2.381181,2784
2.381893,4769
2.382604,7089
2.383317,4817
2.384035,3872
2.384746,4080
2.385467,3632
2.386185,3088
2.386904,2832
2.387843,3840
2.388844,3408
2.389843,2720
2.390843,3632
2.391842,4145
2.392843,4145
2.393843,3616
2.394844,3424
2.395844,3360
2.396844,3984
2.397843,3408
2.398844,3648
2.399844,4113
2.400844,3456
2.401842,3216
2.402844,3984
2.403843,3936
2.404842,4401
2.405844,3776
2.406843,4513
2.407864,2992
2.408847,4225
2.409843,3616
2.410841,3792
2.411843,3200
2.412844,4689
2.413844,4193
2.414842,3872
2.415844,3168
2.416846,3024
2.417843,3488
2.418843,3728
2.419843,3824
2.420843,3760
2.421843,3216
2.422845,3264
2.423844,4433
2.424842,3600
2.425844,3120
2.426843,3808
2.427842,3776
2.428842,3680
2.429842,3728
2.430845,3216
2.431843,3584
2.432842,3920
2.433844,3856
2.434843,3904
2.435843,3840
2.436842,3568
2.437844,3584
2.438843,3392
2.439844,3568
2.440843,3648
2.441844,3904
2.442845,3232
2.443843,3872
2.444843,3808
2.445843,3488
2.446844,3648
2.447842,3536
2.448843,4369
2.449843,4016
2.450843,3488
2.451844,3344
2.452841,3344
2.453843,3056
2.454845,3536
2.455845,3808
2.456844,3792
2.457842,3584
2.458843,3408
2.459844,3216
2.460843,4369
2.461843,4129
2.462843,3392
2.463844,4353
2.464844,3392
2.465845,3264
2.466845,3296
2.467843,3744
2.468843,3888
2.469843,3792
2.470842,4865
2.471857,3136
2.472846,3280
2.473843,3792
2.474844,4225
2.475843,3696
2.476843,3456
2.477844,3840
2.478842,3392
2.479842,4000
2.480843,3296
2.481841,3408
2.482843,3456
2.483844,3664
2.484843,4273
2.485844,3552
2.486844,3856
2.487841,3664
2.488843,4257
2.489843,3344
2.490844,3328
2.491845,4369
2.492843,4113
2.493844,3200
2.494841,3472
2.495844,3856
2.496843,3872
2.497843,3424
2.498842,4177
2.499843,3664
2.500844,3376
2.501845,3648
2.502842,3536
2.503843,3632
2.504844,4113
2.505841,4000
2.506843,3264
2.507844,4401
2.508844,3328
2.509845,3328
2.510844,3840
2.511843,3456
2.512844,3216
2.513843,4064
2.514842,3360
2.515842,3648
2.516844,3344
2.527406,2944
2.527633,3024
2.527848,3392
2.528055,2944
2.528258,2896
2.528471,3456
2.528678,3360
2.528888,2880
2.529096,2992
2.529310,2736
2.529842,3408
2.530844,2848
2.531845,3712
2.532840,4353
2.533843,3136
2.534843,3408
2.535858,3280
2.536850,3232
2.537846,3360
2.538843,3808
2.539842,4417
2.540843,3728
2.541845,3840
2.542844,4064
2.543841,4417
2.544845,4385
2.545843,3552
2.546844,3232
2.547842,3632
2.548843,3152
2.549843,4193
2.550844,3792
2.551843,3408
2.552843,3504
2.553844,4481
2.554843,3856
2.555844,3808
2.556844,4016
2.557843,3936
2.558844,3392
2.559843,3456
2.560842,3520
2.561843,4353
2.719947,2992
2.720485,2912
2.720794,3760
2.721094,4000
2.721376,3584
2.721725,3488
2.722015,2752
2.722295,3520
2.722582,2688
2.722890,2592
2.723176,3344
2.723464,3216
2.723842,4353
2.724845,3856
2.725843,2704
2.726965,3536
2.727863,3408
2.728848,4993
2.729844,3936
2.730842,3168
2.731843,5057
2.732844,3664
2.733842,3632
2.734845,4689
2.735845,3200
2.736842,3120
2.737845,3600
2.738843,3440
2.739843,3952
2.740843,3520
2.741841,3248
2.742842,3680
2.743844,3888
2.744842,3808
2.745842,4481
2.746844,3344
2.747846,3216
2.748843,3472
2.749845,4097
2.750843,4097
2.751843,4032
2.752844,3456
2.753844,3728
2.754843,3856
2.755844,3584
2.756843,3344
2.757842,4097
2.758844,4032
2.759844,4321
2.760843,3488
2.761843,4193
2.762843,3920
2.763843,3104
2.764843,3456
2.765843,3808
2.766846,3888
2.767843,3440
2.768842,3520
2.769842,3248
2.770843,3488
2.771843,3488
2.772842,4305
2.773845,4209
2.774841,3456
2.775842,3104
2.776844,3584
2.777842,2976
2.778844,4481
2.779844,4048
2.780844,3392
2.781846,3296
2.782844,4577
2.783841,3664
2.784843,3152
2.785843,3488
2.786841,3104
2.787843,3936
2.788843,3392
2.789844,2960
2.790841,2752
2.791856,3120
2.792847,4353
2.793846,4513
2.794843,3472
2.795844,3360
2.796844,3472
2.797842,3552
2.798845,3424
2.799843,4705
2.800843,3728
2.801843,4032
2.802843,3744
2.803844,3328
2.804842,2592
2.805843,2896
2.806843,3408
2.807843,2992
2.808843,3680
2.809844,3552
2.810841,3376
2.811844,3584
2.812843,3456
2.813843,3008
2.814844,3616
2.815842,2736
2.816843,2880
2.817841,4513
2.818843,4497
2.819843,3616
2.820842,3408
2.821843,3712
2.822844,3200
2.823843,3520
2.824841,3248
2.825843,3120
2.826844,4433
2.827842,3312
2.828841,2704
2.829843,3392
2.830844,3408
2.831843,4225
2.832843,4097
2.833843,3360
2.834841,2704
2.835843,2912
2.836843,4945
2.837843,3424
2.838842,3360
2.839843,2816
2.840844,3424
2.841841,3200
2.842843,4945
2.843843,3584
2.844844,3280
2.845842,3152
2.846842,3024
2.847843,4241
2.848842,3296
2.849843,3648
2.850844,3328
2.851843,3680
2.852842,2592
2.853842,3216
2.854844,3680
2.855858,2992
2.856846,3520
2.857845,3344
2.858845,3888
2.859843,3472
2.860843,2768
2.861844,3792
2.862842,4401
2.863843,3424
2.864845,3376
2.865844,4048
2.866843,3424
2.867845,3392
2.868843,3280
2.869845,3664
2.870841,3520
2.871844,3888
2.872842,2944
2.873843,3392
2.874842,3616
2.875843,3392
2.876842,3296
2.877844,3392
2.878841,4817
2.879844,4737
2.880845,3152
2.881843,2848
2.882843,3024
2.883844,3984
2.884845,4529
2.885843,2704
2.886844,3328
2.887844,3536
2.888843,4641
2.889843,3744
2.890842,5297
2.891844,3808
2.892844,3936
2.893844,3856
2.894843,3136
2.895844,3360
2.896844,4113
2.897842,4129
2.898844,3584
2.899841,2608
2.900843,3392
2.901845,2848
2.902845,3552
2.903843,3520
2.904843,2848
2.905842,4145
2.906843,3584
2.907844,3232
2.908844,3296
2.909844,3216
2.910844,3296
3.062426,4145
3.063139,3216
3.063611,3024
3.064059,3024
3.064495,3024
3.065001,3600
3.065441,3712
3.065883,4305
3.066322,4529
3.066782,3136
3.067224,3536
3.067664,4193
3.068108,3104
3.068551,3792
3.068997,3728
3.069845,3024
3.070845,3648
3.071842,3456
3.072844,2784
3.073843,3216
3.074843,2992
3.075841,2768
3.076841,3024
3.077843,3552
3.078844,4161
3.079844,3472
3.080843,3088
3.081844,3024
3.082843,2912
3.083844,2528
3.084844,2848
3.085844,3456
3.086843,3040
3.087843,3952
3.088843,3568
3.089845,2736
3.090842,3040
3.091843,2752
3.092843,2480
3.093844,2736
3.094844,2832
3.095841,2896
3.096842,3376
3.097842,3936
3.098843,2608
3.099845,3792
3.100842,3008
3.101843,2640
3.102843,3216
3.103843,3920
3.104845,3392
3.105842,3488
3.106842,2864
3.107845,2448
3.108844,2464
3.109844,3360
3.110844,2976
3.111872,4113
3.112855,3904
3.113845,2896
3.114841,3856
3.115845,2832
3.116843,2672
3.117842,2416
3.118843,2784
3.119842,4145
3.120843,2704
3.121843,3008
3.122844,4561
3.123843,4705
3.124844,2720
3.125843,3424
3.126843,2784
3.127841,2512
3.128845,3584
3.129841,2608
3.130843,3824
3.131842,3360
3.132843,3088
3.133842,4145
3.134842,3792
3.135844,2592
3.136843,2400
3.137843,2736
3.138843,2480
3.139842,3616
3.140845,2688
3.141842,3088
3.142845,2608
3.143843,2976
3.144841,3872
3.145843,3296
3.146843,2496
3.147844,3904
3.148843,2880
3.149843,3808
3.150844,3280
3.151843,3712
3.152842,2400
3.153844,2880
3.154844,2560
3.155844,3072
3.156843,3040
3.157843,3296
3.158843,3744
3.159843,3488
3.160843,3024
3.161843,2672
3.162845,2768
3.163843,2400
3.164844,3456
3.165841,3136
3.166844,3008
3.167843,2816
3.168845,2544
3.169842,3120
3.170843,5025
3.171843,3488
3.172843,2512
3.173843,3232
3.174862,3040
3.175848,3728
3.176842,3392
3.177845,3104
3.178841,3264
3.179843,2944
3.180841,3152
3.181841,3072
3.182843,2992
3.183844,2896
3.184844,3312
3.185842,2592
3.186843,2944
3.187843,2560
3.188844,3888
3.189844,3280
3.190843,2832
3.191842,3024
3.192842,3904
3.193844,3392
3.194843,2560
3.195844,3168
3.196843,3568
3.197844,2752
3.198842,4016
3.199842,3168
3.200845,2736
3.201842,3616
3.202843,3216
3.203841,2720
3.204841,3232
3.205843,4241
3.206843,3840
3.207842,2480
3.208845,2912
3.209842,4369
3.210844,2896
3.211844,3136
3.212841,2768
3.213844,2848
3.214843,2368
3.215843,3536
3.216846,3552
3.217841,3664
3.218843,3296
3.219844,2576
3.220844,2608
3.221842,3472
3.222843,3664
3.223843,4145
3.224843,3008
3.225843,2800
3.226844,2816
3.227842,2608
3.228842,3824
3.229844,4064
3.230844,4289
3.231843,3024
3.232841,3728
3.233842,2816
3.234841,3216
3.235844,2592
3.236843,2992
3.237841,4080
3.238865,2640
3.239851,3248
3.240845,2704
3.241845,3104
3.242845,3328
3.243843,4193
3.244843,3360
3.245843,3136
3.246843,2896
3.247844,2976
3.248842,3040
3.249843,2592
3.250843,3088
3.251843,3152
3.252844,3360
3.253843,3552
3.362845,2896
3.363688,3936
3.364310,2976
3.364913,3008
3.365500,3648
3.366160,3600
3.366750,3824
3.367469,3104
3.368075,4161
3.368693,2560
3.369286,2816
3.369882,3424
3.370474,4080
3.371070,3280
3.371665,2240
3.372265,3008
3.372865,3712
3.373483,3376
3.374080,3072
3.374676,2704
3.375279,3520
3.375882,3824
3.376844,5025
3.377843,4129
3.378844,3680
3.379843,3376
3.380843,3552
3.381843,3408
3.382846,2848
3.383843,2576
3.384845,2608
3.385843,2944
3.386843,2688
3.387843,3408
3.388840,3856
3.389843,3024
3.390842,2624
3.391844,3056
3.392844,2848
3.393843,3104
3.394842,4433
3.395842,3040
3.396844,3120
3.397845,3872
3.398842,2512
3.399846,2624
3.400843,2736
3.401842,3296
3.402846,4193
3.403842,2944
3.404845,3008
3.405845,3600
3.406845,3136
3.407842,2592
3.408843,3600
3.409843,3520
3.410844,2832
3.411844,3056
3.412843,2832
3.413843,3808
3.414844,3888
3.415841,2944
3.416843,2624
3.417844,2640
3.418843,2592
3.419842,2624
3.420845,3936
3.421844,3328
3.422842,2976
3.423842,3456
3.424843,3376
3.425842,3120
3.426842,3824
3.427843,2464
3.428843,3856
3.429844,3760
3.430843,2896
3.431859,3152
3.432845,2848
3.433842,2960
3.434843,3072
3.435844,3728
3.436842,3328
3.437843,3008
3.438843,2432
3.439843,3008
3.440842,3200
3.441842,2768
3.442843,2896
3.443843,4401
3.444844,3200
3.445842,4048
3.446843,4497
3.447843,2832
3.448844,3968
3.449843,3344
3.450845,3136
3.451840,3072
3.452844,4225
3.453843,2720
3.454843,3024
3.455845,2560
3.456844,2768
3.457843,4593
3.458842,3168
3.459845,2784
3.460844,3280
3.461843,3376
3.462843,3264
3.463842,3152
3.464845,2304
3.465843,2528
3.466845,4433
3.467843,3872
3.468843,2944
3.469845,3648
3.470844,2960
3.471842,2912
3.472842,2720
3.473845,2880
3.474843,2784
3.475843,3232
3.476843,2976
3.477843,3264
3.478842,4849
3.479843,3648
3.480843,2784
3.481844,2736
3.482843,2880
3.483843,4417
3.484843,2592
3.485843,2880
3.486843,3376
3.487843,3536
3.488842,3152
3.489843,2608
3.490843,3392
3.491842,3184
3.492843,2576
3.493844,3008
3.494844,2736
3.495860,3408
3.496847,4609
3.497845,4161
3.498843,2592
3.499844,2352
3.500843,3664
3.501841,2704
3.502844,2880
3.503843,3664
3.504843,2912
3.505843,3888
3.506843,3488
3.507844,2704
3.508843,2832
3.509842,3264
3.510843,3280
3.511843,3584
3.512844,3328
3.513845,2896
3.514844,3008
3.515843,2816
3.516845,4048
3.517843,3408
3.518842,2960
3.519843,2944
3.520843,3616
3.521842,2864
3.522842,2656
3.523844,4321
3.524843,3456
3.525843,3376
3.526844,3216
3.527843,2736
3.528841,3440
3.529845,2832
3.530845,2592
3.531844,3152
3.532842,3472
3.533843,2896
3.534843,3712
3.535842,3200
3.536843,2784
3.537844,2896
3.538844,4449
3.539843,3424
3.540843,3024
3.541843,3664
3.542843,4241
3.543843,3264
3.544845,2752
3.545843,2736
3.546845,2992
3.547842,2336
3.548845,3456
3.549843,3440
3.550842,5137
3.551845,4145
3.552842,3488
3.553843,2880
3.712644,4417
3.713661,4417
3.714451,2960
3.715215,3040
3.715976,3024
3.716808,4641
3.717561,3632
3.718315,4000
3.719072,5825
3.719844,4689
3.720595,3664
3.721356,3520
3.722117,3248
3.722877,4000
3.723631,3856
3.724393,2672
3.725153,3408
3.725938,3296
3.726698,3392
3.727461,3344
3.728225,2896
3.728988,3216
3.729756,4048
3.730521,2592
3.731282,3632
3.732050,2592
3.732816,3664
3.733580,4353
3.734348,3632
3.735118,3472
3.735891,3536
3.736660,3392
3.737425,2544
3.738236,3264
3.739007,3616
3.739844,2864
3.740844,4289
3.741841,3296
3.742844,2768
3.743844,3216
3.744840,3168
3.745845,3584
3.746844,3296
3.747843,3120
3.748843,3024
3.749841,3488
3.750843,2832
3.751862,3168
3.752849,4337
3.753842,4032
3.754842,4257
3.755844,2784
3.756844,3088
3.757843,3616
3.758844,2704
3.759842,3008
3.760843,2656
3.761844,3648
3.762843,4129
3.763843,3504
3.764843,2848
3.765843,3456
3.766845,3168
3.767841,3200
3.768845,2688
3.779132,3888
3.779364,3216
3.779570,3040
3.779776,3168
3.779991,2896
3.780204,3280
3.780409,3216
3.780624,2688
3.780841,3680
3.781057,3792
3.781844,3456
3.782842,3120
3.783843,3296
3.784841,4881
3.785843,4209
3.786841,2944
3.787844,3472
3.788842,2880
3.789843,2832
3.790842,2688
3.791845,2656
3.792841,3200
3.793843,2944
3.794843,3040
3.795842,3536
3.796841,3616
3.797841,3936
3.798845,3040
3.799842,2832
3.800845,3120
3.801843,2768
3.802844,4273
3.803843,3232
3.804844,4129
3.805843,3904
3.806844,3584
3.807842,4097
3.808843,2688
3.809843,2864
3.810841,2624
3.811843,4048
3.812843,3616
3.813844,3168
3.814842,3248
3.815862,3504
3.816849,2624
3.817847,2432
3.818846,4897
3.819843,4016
3.820845,3216
3.821844,3392
3.822843,3344
3.823843,2736
3.824843,2768
3.825842,3488
3.826843,3040
3.827845,2848
3.828843,2832
3.829844,3600
3.830845,3440
3.831845,2944
3.832843,3344
3.833843,4305
3.834844,3488
3.835843,2848
3.836844,2784
3.837844,2992
3.838845,2688
3.839843,3760
3.840842,3712
3.841842,3456
3.842843,3488
3.843843,2880
3.844843,2864
3.845843,3104
3.846843,2752
3.847844,3536
3.848841,3984
3.849843,3152
3.850843,2816
3.851843,3456
3.852843,3392
3.853843,2880
3.854844,3328
3.855844,3216
3.856841,5297
3.857845,3328
3.858843,2992
3.859843,3232
3.860843,2864
3.861843,3600
3.862843,3744
3.863841,3056
3.864845,2560
3.865841,2784
3.866843,3008
3.867844,2912
3.868843,3104
3.869844,4641
3.870842,4129
3.871843,2720
3.872843,3408
3.873844,2800
3.874842,3424
3.875844,2784
3.876845,3376
3.877840,5297
3.878857,3920
3.879846,2688
3.880843,2800
3.881844,2512
3.882845,2912
3.883844,4353
3.884843,2656
3.885843,2912
3.886843,3328
3.887844,3040
3.888841,2768
3.889841,4113
3.890842,3408
3.891845,3168
3.892843,3616
3.893843,3280
3.894842,3216
3.895843,3360
3.896843,3520
3.897843,2752
3.898843,2608
3.899843,3296
3.900846,3152
3.901844,2720
3.902842,2704
3.903843,2944
3.904841,4497
3.905844,3872
4.057546,4016
4.058143,3552
4.058507,3600
4.058859,4064
4.059195,3488
4.059600,3328
4.059938,3536
4.060276,3104
4.060615,3408
4.060972,3040
4.061307,3392
4.061644,2960
4.061989,3104
4.062844,3632
4.063844,3312
4.064842,3088
4.065843,3200
4.066843,2944
4.067845,2896
4.068843,3232
4.069845,3392
4.070843,4961
4.071863,3632
4.072850,2976
4.073843,3600
4.074844,3680
4.075844,3488
4.076843,2736
4.077844,2528
4.078844,2784
4.079842,3232
4.080843,3136
4.081843,3984
4.082843,3808
4.083843,3296
4.084844,3984
4.085842,3984
4.086845,2688
4.087843,2896
4.088843,3152
4.089842,3248
4.090843,2992
4.091843,2864
4.092843,3088
4.093843,3232
4.094843,3344
4.095842,2784
4.096843,2912
4.097843,3376
4.098843,3392
4.099842,3392
4.100845,4689
4.101845,4609
4.102845,3104
4.103843,3072
4.104843,2960
4.105844,3168
4.106842,3600
4.107843,4369
4.108845,3488
4.109844,3008
4.110842,3024
4.111841,3088
4.112844,3584
4.113842,3088
4.114843,4097
4.115843,2864
4.116843,3248
4.117843,4193
4.118843,2992
4.119844,2688
4.120844,4000
4.121844,2992
4.122844,2896
4.123845,2896
4.124844,2976
4.125843,3200
4.126843,3120
4.127842,3296
4.128843,3040
4.129843,3104
4.130843,3488
4.131844,4016
4.132842,3936
4.133843,4000
4.134843,3200
4.135869,2832
4.136852,2320
4.137846,3008
4.138844,3728
4.139843,4000
4.140843,3088
4.141843,2800
4.142843,3616
4.143844,3920
4.144843,3408
4.145843,2928
4.146843,2560
4.147844,2752
4.148843,3248
4.149843,3792
4.150842,3424
4.151842,3488
4.152845,3344
4.153844,3104
4.154843,2992
4.155841,3264
4.156845,3216
4.157840,3072
4.158844,3072
4.159843,3744
4.160843,3120
4.161844,3808
4.162844,2992
4.163844,3328
4.164843,3392
4.165844,4641
4.166845,2768
4.167843,3152
4.168844,3360
4.169844,3648
4.170843,3808
4.171843,2832
4.172844,3232
4.173845,4000
4.174843,3120
4.175843,3472
4.176843,3008
4.177841,3280
4.178844,3792
4.179845,3424
4.180843,3024
4.181840,3744
4.182843,3840
4.183844,3712
4.184842,3088
4.185844,2832
4.186844,3456
4.187843,3072
4.188843,3200
4.189843,2848
4.190845,2912
4.191843,3312
4.192842,4433
4.193843,4097
4.194844,3616
4.195844,2976
4.196843,3584
4.197843,5457
4.198844,4145
4.199861,3584
4.200848,2800
4.201846,2592
4.202843,4865
4.203843,3456
4.204841,3360
4.205845,3312
4.206844,3136
4.207841,3280
4.208843,3264
4.209844,3344
4.210842,3200
4.211844,2832
4.212843,3024
4.213842,3616
4.214843,3040
4.215845,3664
4.216844,3584
4.217846,2992
4.218843,3296
4.219843,3264
4.220843,4064
4.221842,3248
4.222843,3744
4.223845,3408
4.224843,3936
4.225845,3120
4.226843,3072
4.227844,2960
4.228845,2848
4.229843,3584
4.230845,4657
4.231844,4129
4.232844,2832
4.233843,4064
4.234844,2880
4.235843,3072
4.236843,2640
4.237845,3280
4.238844,3536
4.239843,3232
4.240842,3792
4.241845,3280
4.242842,2912
4.243843,2880
4.244843,3280
4.245843,4177
4.246843,3232
4.247842,2832
4.248842,2960
4.361241,2976
4.361996,3888
4.362515,3712
4.363013,3312
4.363508,3728
4.364070,2816
4.364563,3776
4.365060,4785
4.365549,3216
4.366062,3376
4.366555,2976
4.367048,2832
4.367543,3120
4.368042,3552
4.368534,4481
4.369032,4417
4.369843,4129
4.370844,3040
4.371841,3040
4.372844,3392
4.373844,3872
4.374843,3136
4.375843,2784
4.376842,3072
4.377844,4385
4.378842,3760
4.379843,2976
4.380843,2896
4.381844,2784
4.382842,3088
4.383842,3504
4.384842,3344
4.385843,4401
4.386843,3392
4.387843,2944
4.388842,3008
4.389842,4225
4.390844,3008
4.391869,3584
4.392847,4161
4.393844,3008
4.394843,2976
4.395842,3456
4.396844,3584
4.397844,3520
4.398842,3648
4.399843,3360
4.400845,3184
4.401844,3088
4.402843,3280
4.403843,3296
4.404844,3104
4.405841,3920
4.406842,3376
4.407843,3552
4.408842,3328
4.409844,3152
4.410843,3360
4.411843,3136
4.412843,3472
4.413843,2864
4.414846,2960
4.415843,3664
4.416844,4961
4.417844,3488
4.418845,3504
4.419845,3728
4.420842,4497
4.421843,5073
4.422845,3152
4.423841,3152
4.424841,3632
4.425843,3968
4.426842,3520
4.427842,3264
4.428843,3056
4.429843,3392
4.430843,3424
4.431846,3408
4.432844,4289
4.433842,3712
4.434843,3088
4.435842,3072
4.436843,2864
4.437842,3584
4.438843,2976
4.439844,3120
4.440845,3088
4.441844,3408
4.442844,4241
4.443843,3936
4.444842,5233
4.445843,3792
4.446844,3120
4.447843,2848
4.448846,3088
4.449844,3488
4.450842,3936
4.451843,3424
4.452842,3328
4.453843,3744
4.454842,4145
4.455858,3168
4.456852,3264
4.457844,3120
4.458844,2880
4.459842,3648
4.460842,3408
4.461843,4305
4.462843,3840
4.463843,3536
4.464845,4353
4.465843,4305
4.466842,3312
4.467844,3200
4.468844,3632
4.469844,3760
4.470841,3984
4.471843,3456
4.472844,3408
4.473840,3616
4.474843,3104
4.475844,2944
4.476845,3296
4.477842,3392
4.478845,3248
4.479843,3648
4.480842,3552
4.481844,3120
4.482842,3824
4.483843,3728
4.484842,3648
4.485842,3456
4.486843,3984
4.487843,3360
4.488844,3136
4.489843,3904
4.490843,3152
4.491842,3392
4.492844,3984
4.493844,3424
4.494843,3248
4.495843,3456
4.496842,3296
4.497846,2784
4.498844,3536
4.499842,3456
4.500843,3728
4.501843,3984
4.502844,3088
4.503845,3760
4.504845,3264
4.505844,3328
4.506844,3424
4.507843,3488
4.508843,5073
4.509842,3392
4.510843,3728
4.511842,2896
4.512843,3152
4.513843,3680
4.514843,3536
4.515844,2912
4.516843,3456
4.517843,6209
4.518844,4161
4.519863,4561
4.520848,3408
4.521844,3152
4.522844,4417
4.523844,3392
4.524841,4353
4.525843,3152
4.526842,3456
4.527845,3520
4.528843,4657
4.529843,3424
4.530842,3312
4.531846,3872
4.532844,3168
4.533842,3760
4.534843,3440
4.535843,3312
4.536843,3216
4.537845,3296
4.538845,3264
4.539843,3504
4.540842,3504
4.541843,2960
4.542843,3360
4.543843,2944
4.544843,3408
4.545843,4385
4.546844,3792
4.547841,3200
4.548843,3712
4.549843,4897
4.550843,3968
4.551844,3632
4.552844,3584
4.717518,2880
4.718441,3904
4.719131,4401
4.719782,4449
4.720432,2720
4.721141,4385
4.721781,3712
4.722430,4161
4.723078,3472
4.723742,3856
4.724394,3232
4.725041,3360
4.725681,3232
4.726334,3648
4.726983,2832
4.727631,3152
4.728285,3936
4.728957,3504
4.729604,2816
4.730260,2736
4.730912,4048
4.731565,3808
4.732224,2960
4.732877,2832
4.733843,3408
4.734845,3232
4.735844,3360
4.736841,3776
4.737843,3920
4.738843,3616
4.739843,3664
4.740842,4433
4.741845,4032
4.742843,4833
4.743842,3920
4.744844,3280
4.745844,3200
4.746843,4097
4.747843,3408
4.748845,4561
4.749843,3344
4.750844,4193
4.751843,3872
4.752843,4769
4.753843,3504
4.754845,3248
4.755843,3424
4.756842,3392
4.757845,3840
4.758843,3232
4.759843,3424
4.760844,3040
4.761842,3536
4.762840,3856
4.763842,3712
4.764844,3840
4.765843,3568
4.766841,3488
4.767843,3504
4.768842,3488
4.769844,3120
4.770844,3136
4.771842,4945
4.772843,4657
4.773843,5633
4.774841,3856
4.775861,2912
4.776847,4000
4.777845,3392
4.778845,3376
4.779844,4145
4.780845,3488
4.781844,3216
4.782844,3520
4.783843,3744
4.784842,3632
4.785844,3232
4.786845,3104
4.787843,4321
4.788844,3360
4.789843,4177
4.790843,3552
4.791844,3504
4.792843,3360
4.793845,3280
4.794845,4161
4.795844,3856
4.796843,3888
4.797843,3760
4.798843,3872
4.799843,3328
4.800843,3552
4.801845,3600
4.802844,3600
4.803845,5585
4.804843,3360
4.805844,4673
4.806845,3200
4.807844,3568
4.808845,4289
4.809843,3440
4.810843,3280
4.811844,4225
4.812845,4577
4.813844,4737
4.814843,3280
4.815843,3616
4.816844,3120
4.817842,3136
4.818841,3504
4.819844,3408
4.820843,3504
4.821843,3632
4.822843,3744
4.823842,4080
4.824843,3488
4.825843,4016
4.826846,4145
4.827845,3280
4.828842,3344
4.829842,3728
4.830844,3360
4.831843,3744
4.832844,3472
4.833843,4289
4.834844,4545
4.835844,3536
4.836844,3648
4.837844,4417
4.838843,5009
4.839860,4048
4.840848,3328
4.841844,3040
4.842846,2960
4.843843,3408
4.844843,3984
4.845843,3504
4.846844,4016
4.847845,3600
4.848844,5153
4.849842,5137
4.850843,3792
4.851842,3392
4.852845,3632
4.853843,4193
4.854844,3712
4.855843,3168
4.856845,3232
4.857842,3392
4.858844,3712
4.859844,3792
4.860843,3216
4.861843,3264
4.862843,3936
4.863841,3808
4.864842,3632
4.865845,4080
4.866842,3312
4.867842,4321
4.868846,3136
4.869845,3648
4.870843,3744
4.871845,3504
4.872842,4129
4.873843,3760
4.874843,3616
4.875845,3760
4.876842,3296
4.877844,3280
4.878845,3488
4.879844,3120
4.880843,3792
4.881845,3312
4.882843,3360
4.883844,3552
4.884843,4257
4.885845,3808
4.886845,3744
4.887843,3664
4.888843,3584
4.889844,4145
4.890842,3760
4.891844,3712
4.892845,2896
4.893843,3280
4.894843,3968
4.895844,4497
4.896843,4401
4.897842,3344
4.898842,3312
4.899843,3616
4.900843,3776
4.901843,3376
4.902841,3424
4.903863,3200
4.904845,3792
4.905843,3792
4.906842,3328
4.907843,3408
4.908844,3280
5.062008,3824
5.064070,2480
5.065054,3168
5.065912,3472
5.066730,4097
5.067607,2832
5.068419,3392
5.069225,3280
5.070037,4353
5.070863,3312
5.071672,3040
5.072483,3008
5.073301,3536
5.074112,3120
5.074922,3680
5.075728,3808
5.083068,4353
5.083306,3680
5.083518,3728
5.083720,3968
5.083934,2976
5.084147,3584
5.084361,3424
5.084571,4113
5.084784,4737
5.085001,4401
5.085843,4401
5.086843,3520
5.087844,3808
5.088844,3488
5.089844,3840
5.090845,4401
5.091842,3840
5.092844,3520
5.093845,3776
5.094843,4016
5.095870,4000
5.096854,2864
5.097849,3136
5.098844,3712
5.099843,3840
5.100844,3360
5.101844,4000
5.102844,4161
5.103843,3760
5.104845,3776
5.105843,3776
5.106844,3984
5.107844,3616
5.108844,3360
5.109845,3840
5.110843,3872
5.111844,4225
5.112843,3920
5.113840,3520
5.114843,3744
5.115843,3488
5.116843,3488
5.117845,3328
5.118844,3248
5.119842,3808
5.120844,4080
5.121844,4064
5.122841,3168
5.123842,3504
5.124843,3136
5.125842,3808
5.126842,3664
5.127843,4080
5.128844,5313
5.129841,3712
5.130844,4401
5.131843,3488
5.132841,3520
5.133843,3904
5.134843,4833
5.135845,4097
5.136841,3568
5.137843,3264
5.138844,3632
5.139842,3328
5.140843,3344
5.141844,2912
5.142845,3216
5.143843,3808
5.144842,4513
5.145844,4497
5.146845,3296
5.147843,3712
5.148843,3760
5.149842,3248
5.150842,4145
5.151846,5137
5.152843,3760
5.153843,3536
5.154846,3664
5.155843,3296
5.156843,3856
5.157841,2992
5.158860,4385
5.159851,3712
5.160845,3456
5.161843,3744
5.162844,3984
5.163844,3456
5.164842,3408
5.165841,3408
5.166843,3728
5.167844,3600
5.168845,4080
5.169842,3808
5.170843,4113
5.171843,3680
5.172844,3616
5.173843,2992
5.174842,3408
5.175843,3488
5.176841,3984
5.177844,4145
5.178843,4657
5.179845,4625
5.180844,3680
5.181844,3840
5.182845,3456
5.183845,3376
5.184843,3600
5.185844,3840
5.186844,3216
5.187841,3152
5.188843,3872
5.189844,3536
5.190843,4449
5.191844,4785
5.192842,3536
5.193843,3872
5.194843,4769
5.195843,4032
5.196841,3776
5.197843,3680
5.198842,3664
5.199844,3440
5.200843,4321
5.201843,4353
5.202844,3440
5.203843,3616
5.204844,3952
5.205844,3408
5.206843,3712
5.207843,3328
5.208843,3904
5.209843,3392
5.210843,3152
5.211844,3536
5.212843,4145
5.213843,4961
5.214844,4689
5.215844,3856
5.216843,3376
5.217844,4016
5.218844,3600
5.219845,3216
5.220843,4401
5.221846,4161
5.222861,3424
5.223848,3600
5.224843,3264
5.225843,3648
5.226845,4113
5.227843,4000
5.228844,3840
5.229843,3408
5.230843,3952
5.231843,3808
5.232844,3376
5.233843,3264
5.234844,4689
5.235843,3760
5.236844,3728
5.237843,3120
5.238843,3392
5.239842,3888
5.240843,3792
5.241840,2944
5.242844,4401
5.243843,4865
5.244841,3008
5.245845,3648
5.246845,4016
5.247845,3712
5.248842,5297
5.249841,3360
5.250845,3728
5.251844,4032
5.252843,3392
5.253842,2768
5.254843,3024
5.255843,4129
5.256842,5009
5.257845,4385
5.258841,3392
5.370778,2576
5.371413,2960
5.371812,3088
5.372181,3104
5.372548,3744
5.372981,3472
5.373346,3760
5.373710,3776
5.374078,3264
5.374462,3136
5.374831,3296
5.375200,3936
5.375568,3856
5.375938,2976
5.376844,3408
5.377841,2896
5.378844,3440
5.379843,3808
5.380842,3584
5.381841,3296
5.382843,3648
5.383844,5089
5.384842,3248
5.385843,3584
5.386846,3760
5.387842,3600
5.388845,3856
5.389843,2976
5.390842,3392
5.391845,5041
5.392843,3744
5.393843,2624
5.394842,2976
5.395843,3312
5.396841,2528
5.397843,3456
5.398842,3264
5.399845,4048
5.400842,3584
5.401844,3264
5.402844,3264
5.403844,4129
5.404843,3280
5.405843,3664
5.406844,3136
5.407843,5377
5.408843,3632
5.409843,3360
5.410842,3632
5.411843,3856
5.412844,4241
5.413843,3648
5.414846,3712
5.415868,2624
5.416850,3680
5.417846,3824
5.418843,3552
5.419844,4032
5.420841,3200
5.421843,2912
5.422844,3744
5.423844,3680
5.424842,2832
5.425843,3072
5.426843,2992
5.427843,4689
5.428845,4193
5.429844,3344
5.430842,4753
5.431844,3808
5.432842,3264
5.433844,3680
5.434843,3296
5.435843,3536
5.436844,4289
5.437843,2784
5.438846,3296
5.439841,3232
5.440843,3216
5.441841,3552
5.442844,4000
5.443843,3168
5.444844,4016
5.445843,3568
5.446841,2864
5.447843,3408
5.448842,2768
5.449844,3584
5.450842,2768
5.451844,3216
5.452842,2832
5.453841,4257
5.454844,3776
5.455842,2624
5.456843,3120
5.457843,2944
5.458843,3792
5.459844,4673
5.460842,3744
5.461844,2864
5.462845,3696
5.463845,3392
5.464842,3744
5.465843,3984
5.466844,3792
5.467843,2832
5.468843,3072
5.469843,3088
5.470843,2960
5.471843,3456
5.472843,4225
5.473844,4161
5.474844,3856
5.475842,2512
5.476843,3216
5.477842,3328
5.478844,3344
5.479857,2880
5.480850,3536
5.481842,2960
5.482845,3856
5.483842,4609
5.484843,2608
5.485841,5473
5.486842,4497
5.487844,3552
5.488842,3392
5.489844,3920
5.490843,3824
5.491843,3024
5.492844,3488
5.493844,2880
5.494845,4048
5.495843,3184
5.496844,3920
5.497841,3200
5.498845,3680
5.499843,2800
5.500843,3088
5.501843,2768
5.502845,3776
5.503842,3120
5.504844,3200
5.505843,3648
5.506844,3472
5.507843,3216
5.508843,3152
5.509843,3200
5.510841,2976
5.511843,3168
5.512846,3152
5.513843,2752
5.514845,3248
5.515843,3136
5.516843,3616
5.517843,2784
5.518844,3648
5.519843,4273
5.520841,3008
5.521841,2720
5.522841,2656
5.523843,3040
5.524846,3536
5.525844,2960
5.526843,3984
5.527843,2784
5.528844,2912
5.529842,4577
5.530843,4257
5.531844,4145
5.532844,3360
5.533844,2816
5.534844,3968
5.535841,3344
5.536843,2576
5.537844,3664
5.538843,3040
5.539842,2720
5.540842,3120
5.541844,4032
5.542841,3872
5.543862,3504
5.544847,4032
5.545844,3136
5.546843,2944
5.547843,3008
5.548845,3328
5.549843,2480
5.550843,2544
5.551845,3600
5.552843,3520
5.553844,3936
5.554843,3344
5.555843,4641
5.556842,2720
5.557845,4817
5.558843,2640
5.559845,4000
5.560843,2816
5.561844,3744
5.728269,4401
5.729049,3840
5.729594,2912
5.730123,3552
5.730643,3120
5.731228,4097
5.731748,4080
5.732269,2848
5.732787,2848
5.733328,3232
5.733849,3424
5.734367,3232
5.734889,2976
5.735411,2688
5.736099,3360
5.736638,3008
5.737173,3648
5.737843,3376
5.738844,3392
5.739843,2624
5.740844,3280
5.741843,3024
5.742844,2864
5.743843,2928
5.744843,2464
5.745843,3008
5.746842,4225
5.747845,3312
5.748844,4097
5.749843,3072
5.750843,3328
5.751843,3728
5.752844,3152
5.753846,2896
5.754845,2896
5.755842,3376
5.756843,4000
5.757842,3136
5.758843,3104
5.759843,2896
5.760845,3232
5.761845,2960
5.762843,3040
5.763843,3168
5.764845,3360
5.765844,3472
5.766843,2768
5.767842,2608
5.768843,2976
5.769842,2688
5.770842,4032
5.771842,4641
5.772843,4305
5.773843,3248
5.774842,2704
5.775843,3424
5.776842,3376
5.777841,2576
5.778845,3888
5.779843,2896
5.780844,2224
5.781843,3264
5.782843,3584
5.783845,2752
5.784843,3200
5.785842,3600
5.786845,3280
5.787845,2880
5.788843,3088
5.789843,3024
5.790845,3104
5.791843,2768
5.792843,3488
5.793843,3120
5.794845,2336
5.795843,2880
5.796842,3568
5.797845,3840
5.798864,2784
5.799848,3840
5.800844,4016
5.801843,3248
5.802845,4321
5.803842,3024
5.804843,2992
5.805845,3408
5.806843,2832
5.807843,2512
5.808843,3232
5.809844,3408
5.810844,3680
5.811844,3040
5.812842,3152
5.813843,3248
5.814842,3552
5.815845,2496
5.816844,2624
5.817843,2336
5.818845,3264
5.819843,3808
5.820844,4048
5.821843,3504
5.822843,2656
5.823844,2640
5.824843,2832
5.825843,2656
5.826843,2992
5.827843,3632
5.828842,3632
5.829843,3264
5.830845,3536
5.831843,4048
5.832843,2880
5.833843,2736
5.834843,2752
5.835842,2784
5.836843,3840
5.837841,3920
5.838841,4257
5.839843,3232
5.840843,2592
5.841843,2512
5.842843,2608
5.843845,2784
5.844844,5313
5.845844,3360
5.846841,3984
5.847843,3456
5.848844,3152
5.849845,3440
5.850843,3056
5.851843,2608
5.852843,2912
5.853842,3248
5.854842,3632
5.855840,2672
5.856844,2944
5.857843,3152
5.858844,3792
5.859844,3104
5.860843,2752
5.861842,3264
5.862859,3504
5.863853,3984
5.864846,2720
5.865843,3152
5.866845,4032
5.867845,3808
5.868845,2480
5.869844,3536
5.870843,4000
5.871845,2608
5.872843,3216
5.873843,2944
5.874843,3600
5.875843,3600
5.876841,3552
5.877843,3136
5.878843,3552
5.879844,2608
5.880844,2448
5.881845,2704
5.882842,3280
5.883842,3280
5.884841,2944
5.885844,3632
5.886844,2736
5.887841,2880
5.888843,3136
5.889843,2688
5.890843,2976
5.891843,2864
5.892843,2784
5.893843,3088
5.894842,4913
5.895843,4737
5.896843,3408
5.897844,3344
5.898844,2752
5.899843,2624
5.900842,3648
5.901844,3168
5.902845,2384
5.903842,3648
5.904844,2960
5.905842,2368
5.906843,2592
5.907843,2576
5.908844,3664
5.909845,3600
5.910843,2816
5.911844,2656
5.912844,5025
5.913843,2832
5.914845,2464
5.915843,3152
5.916843,2672
5.917844,3632
5.918843,4545
5.919843,3488
6.075742,3792
6.076680,3136
6.077388,3248
6.078070,3424
6.078739,3872
6.079485,3152
6.080157,3616
6.080831,3616
6.081500,3536
6.082195,2944
6.082874,2848
6.083548,5457
6.084225,4865
6.084905,3888
6.085578,3728
6.086256,3664
6.086936,2992
6.087632,3392
6.088314,3408
6.088994,2976
6.089673,2736
6.090358,3872
6.091038,3424
6.091719,3376
6.092402,3584
6.093086,2816
6.093844,2672
6.094842,3472
6.095843,3280
6.096843,3264
6.097841,3952
6.098843,2976
6.099844,2656
6.100843,3488
6.101843,3392
6.102842,3264
6.103842,3808
6.104844,2960
6.105843,3008
6.106843,2816
6.107843,2640
6.108843,3056
6.109843,4097
6.110842,3472
6.111843,2976
6.112843,2784
6.113845,2832
6.114843,3152
6.115843,3552
6.116844,2864
6.117844,3616
6.118843,2768
6.119872,3248
6.120851,5265
6.121845,3472
6.122843,2848
6.123843,2656
6.124844,3488
6.125843,4289
6.126846,3168
6.127844,2992
6.128845,3664
6.129843,3120
6.130843,2944
6.131844,2720
6.132841,2736
6.133844,4865
6.134844,2704
6.135843,2880
6.136844,3920
6.137841,3408
6.138842,3024
6.139844,2480
6.140844,3552
6.141844,3232
6.142844,3296
6.143844,3296
6.144843,3248
6.145844,3168
6.146844,3456
6.147845,3024
6.148845,2736
6.149843,3168
6.150844,2816
6.151844,4273
6.152845,3296
6.153843,2576
6.154844,3104
6.155844,3648
6.156843,3136
6.157843,2736
6.158844,2944
6.159845,3280
6.160843,2896
6.161844,3584
6.162844,3424
6.163843,4129
6.164844,3488
6.165844,3984
6.166842,2576
6.167844,3088
6.168845,3072
6.169843,3200
6.170845,3168
6.171844,3584
6.172844,2592
6.173842,2704
6.174842,2592
6.175845,3664
6.176844,3920
6.177842,3840
6.178843,4048
6.179845,3152
6.180843,2688
6.181844,3392
6.182844,3040
6.183858,3280
6.184847,2752
6.185845,2832
6.186843,3168
6.187844,3680
6.188843,2624
6.189845,2704
6.190843,3552
6.191843,3232
6.192843,2864
6.193843,2896
6.194842,3424
6.195843,2768
6.196841,2832
6.197845,4625
6.198842,4241
6.199843,3280
6.200843,2752
6.201844,2752
6.202843,2944
6.203844,3056
6.204840,2912
6.205843,3696
6.206843,3472
6.207843,2832
6.208841,3296
6.209843,3104
6.210843,3072
6.211843,3408
6.212842,3520
6.213843,3712
6.214844,3296
6.215843,3728
6.216844,2896
6.217842,3248
6.218843,4161
6.219843,3216
6.220845,2960
6.221844,2864
6.222843,2912
6.223842,3264
6.224844,3136
6.225843,3232
6.226844,3040
6.227845,2368
6.228844,2816
6.229842,2896
6.230843,2816
6.231844,2784
6.232845,3712
6.233844,3616
6.234841,3280
6.235844,2496
6.236842,3552
6.237843,3440
6.238842,2848
6.239844,2352
6.240844,4016
6.241842,4689
6.242843,3984
6.243845,3808
6.244842,3264
6.245845,3360
6.246844,2912
6.247861,4193
6.248848,2752
6.249848,3056
6.250845,3120
6.251845,2864
6.252843,2464
6.253843,3424
6.254844,3104
6.255843,4129
6.256844,5825
6.257845,3584
6.258845,3280
6.259844,2944
6.260843,3584
6.261843,3504
6.262843,4145
6.263843,2752
6.264846,2624
6.265841,5553
6.266845,5329
6.471308,3264
6.471787,3568
6.472065,3776
6.472300,2976
6.472530,4032
6.472790,3168
6.473032,3712
6.473267,2960
6.473500,2832
6.473749,2768
6.473987,3392
6.474842,2928
6.475842,4321
6.476844,3264
6.477843,2624
6.478845,3024
6.479842,3200
6.480843,3504
6.481842,3264
6.482844,3376
6.483843,3904
6.484843,3760
6.485844,4129
6.486842,3216
6.487843,3072
6.488840,3440
6.489843,2944
6.490842,2944
6.491843,2736
6.492843,2848
6.493842,4593
6.494841,3184
6.495845,5921
6.496843,4417
6.497844,2976
6.498842,2944
6.499843,3392
6.500844,3456
6.501843,3808
6.502845,3504
6.503870,3888
6.504850,2288
6.505846,3632
6.506843,3312
6.507842,3216
6.508842,2736
6.509843,4993
6.510845,3040
6.511844,2784
6.512843,3264
6.513841,2976
6.514845,4113
6.515843,5041
6.516842,4305
6.517843,4721
6.518843,4129
6.519843,3392
6.520841,3088
6.521843,3120
6.522845,2976
6.523842,3008
6.524845,2848
6.525843,4609
6.526844,4801
6.527844,3760
6.528845,4369
6.529843,3744
6.530843,3744
6.531843,2912
6.532844,2752
6.533844,5281
6.534844,3008
6.535845,2784
6.536843,3376
6.537845,2912
6.538843,2880
6.539843,2736
6.540841,2976
6.541843,3856
6.542843,3216
6.543842,2832
6.544842,3008
6.545842,3280
6.546843,2896
6.547843,2816
6.548842,4145
6.549843,5537
6.550842,3392
6.551843,3024
6.552842,4273
6.553844,3200
6.554843,4129
6.555843,2864
6.556842,3216
6.557845,2784
6.558843,3792
6.559845,3712
6.560844,3280
6.561844,2944
6.562844,3088
6.563844,3680
6.564843,2832
6.565843,4064
6.566845,2960
6.567858,3344
6.568846,2816
6.569846,3440
6.570845,4785
6.571843,3680
6.572845,3856
6.573843,3536
6.574842,3520
6.575845,3424
6.576843,3152
6.577846,3376
6.578842,4769
6.579843,3296
6.580845,2880
6.581844,3312
6.582845,2960
6.583841,3840
6.584842,3424
6.585843,2976
6.586843,2896
6.587845,4177
6.588845,3648
6.589842,4257
6.590843,3152
6.591843,4048
6.592842,3552
6.593844,2720
6.594845,4497
6.595845,3680
6.596843,4705
6.597843,3632
6.598841,2976
6.599842,3296
6.600844,3216
6.601845,2528
6.602841,3504
6.603844,4817
6.604843,4113
6.605844,3120
6.606843,3680
6.607843,4881
6.608845,4225
6.609845,3744
6.610843,3104
6.611845,2896
6.612844,4064
6.613844,3360
6.614844,2752
6.615845,2864
6.616842,2960
6.617845,3552
6.618843,3936
6.619844,3792
6.620843,4369
6.621844,4305
6.622844,3136
6.623843,5825
6.624843,3472
6.625844,3424
6.626845,3712
6.627843,2944
6.628843,2896
6.629844,3280
6.630843,3280
6.631862,3376
6.632851,2720
6.633845,4625
6.634845,6945
6.635845,3232
6.636842,5793
6.637842,3840
6.638842,3200
6.639841,2896
6.640843,2752
6.641843,3152
6.642843,2784
6.643845,3680
6.644843,3104
6.645843,4080
6.646842,2864
6.647844,4705
6.648842,3360
6.649843,3248
6.650842,6657
6.651845,4433
6.652841,3424
6.653843,3168
6.654845,3296
6.655842,3520
6.656844,4433
6.657842,3088
6.658842,2656
6.659843,2944
6.660843,6209
6.661843,3376
6.662841,4737
6.770877,6865
6.771507,4705
6.771922,4689
6.772313,10194
6.772697,18708
6.773152,10194
6.773539,5057
6.773927,3184
6.774312,6385
6.774718,8866
6.775109,14051
6.775496,11346
6.775891,12947
6.776281,12835
6.776842,10306
6.777843,6881
6.778842,10082
6.779843,3216
6.780843,5729
6.781843,10370
6.782842,5569
6.783843,4705
6.784843,7489
6.785844,2832
6.786844,3792
6.787842,3344
6.788843,7137
6.789843,15187
6.790843,6753
6.791842,6785
6.792845,5441
6.793843,3200
6.794843,9250
6.795843,11026
6.796845,8177
6.797842,16596
6.798844,2944
6.799844,5713
6.800844,8290
6.801843,3408
6.802845,3392
6.803843,13923
6.804841,8882
6.805842,5457
6.806843,4369
6.807843,6065
6.808842,10594
6.809844,3024
6.810845,7505
6.811842,4545
6.812843,17172
6.813843,3920
6.814843,5713
6.815843,7393
6.816843,3664
6.817842,3744
6.818843,8049
6.819845,3136
6.820843,3600
6.821841,4145
6.822844,4801
6.823864,5329
6.824850,5905
6.825843,11970
6.826843,5281
6.827843,3392
6.828844,3888
6.829844,3712
6.830843,5313
6.831842,7921
6.832843,5057
6.833842,8177
6.834843,5761
6.835841,3616
6.836844,10738
6.837845,3824
6.838845,2832
6.839843,3488
6.840844,4993
6.841843,8850
6.842843,3520
6.843843,3088
6.844844,9202
6.845843,3120
6.846844,5153
6.847843,4529
6.848844,8498
6.849844,7601
6.850844,17844
6.851842,19348
6.852843,17620
6.853843,16420
6.854842,9666
6.855843,6289
6.856843,11634
6.857843,11042
6.858844,3296
6.859843,5521
6.860845,8658
6.861843,5681
6.862843,8882
6.863843,7281
6.864845,5777
6.865843,5265
6.866843,4241
6.867845,4817
6.868841,3616
6.869842,7697
6.870842,7937
6.871842,8450
6.872842,16788
6.873843,6337
6.874843,12050
6.875843,3184
6.876843,18372
6.877844,8610
6.878843,6433
6.879846,4064
6.880843,5153
6.881842,6081
6.882843,4657
6.883843,12691
6.884843,4785
6.885844,4064
6.886843,3232
6.887862,4385
6.888849,15443
6.889845,3536
6.890843,24245
6.891843,11474
6.892844,8674
6.893843,12050
6.894843,4032
6.895842,4145
6.896842,8226
6.897844,3280
6.898843,3152
6.899843,3312
6.900843,3136
6.901844,5793
6.902842,3248
6.903843,4865
6.904843,4433
6.905843,7937
6.906844,17828
6.907845,18612
6.908844,5537
6.909843,12755
6.910844,17732
6.911843,5809
6.912843,6209
6.913843,6369
6.914843,3216
6.915845,12419
6.916843,12915
6.917845,4337
6.918843,3920
6.919843,12883
6.920844,25238
6.921843,5633
6.922843,28342
6.923844,28582
6.924843,16275
6.925843,28630
6.926844,21973
6.927843,14355
6.928841,17572
6.929841,4048
6.930843,3360
6.931842,7057
6.932844,20036
6.933844,3984
6.934843,2880
6.935844,11490
6.936843,3344
6.937845,2800
6.938843,8129
6.939843,14595
6.940845,7473
6.941843,5857
6.942841,15043
6.943843,17556
6.944844,4545
6.945844,15363
6.946845,32263
6.947842,6689
6.948845,7489
6.949842,4145
6.950842,23317
6.951856,15635
6.952847,17620
6.953844,13139
6.954843,10418
6.955841,4513
6.956843,11330
6.957843,5521
6.958844,19076
6.959844,4080
6.960842,5825
6.961845,8946
7.125522,18260
7.126328,12194
7.126889,10786
7.127433,16692
7.127979,27686
7.128589,35512
7.129130,25798
7.129677,32375
7.130225,12050
7.130784,3712
7.131329,24293
7.131871,16339
7.132412,6337
7.132959,33752
7.133502,24085
7.134048,18788
7.134592,28294
7.135164,41386
7.135843,30359
7.136843,7553
7.137843,56941
7.138843,21973
7.139843,19892
7.140844,7057
7.141845,31447
7.142843,4561
7.143860,25062
7.144844,28390
7.145844,37353
7.146846,5857
7.147842,12291
7.148845,18340
7.149843,22597
7.150843,7553
7.151844,12098
7.152843,3728
7.153842,5409
7.154843,7617
7.155844,15587
7.156846,46043
7.157845,9058
7.158843,14755
7.159844,29831
7.160845,10706
7.161843,24357
7.162843,25206
7.163843,17588
7.164842,8290
7.165844,35432
7.166845,57438
7.167845,28358
7.168843,3520
7.169843,18228
7.170842,5073
7.171841,4145
7.172845,21829
7.173845,16099
7.174843,18564
7.175841,19652
7.176843,40761
7.177845,16932
7.178843,14771
7.179842,17028
7.180844,3664
7.181841,15283
7.182845,18644
7.183845,30951
7.184845,7681
7.185842,29271
7.186844,16420
7.187843,11362
7.188843,20052
7.189845,22613
7.190844,35688
7.191843,13635
7.192844,9042
7.193842,5873
7.194844,11602
7.195843,18004
7.196842,6225
7.197843,17060
7.198842,22709
7.199841,8882
7.200844,20661
7.201841,12242
7.202843,8418
7.203843,7713
7.204842,3456
7.205841,27910
7.206842,11282
7.207857,4273
7.208848,43434
7.209841,11474
7.210845,15843
7.211844,17172
7.212842,13411
7.213843,35480
7.214840,40361
7.215844,19540
7.216845,8978
7.217843,26518
7.218843,12419
7.219842,20581
7.220844,14915
7.221842,5921
7.222845,6945
7.223843,15699
7.224843,6673
7.225843,20981
7.226842,3504
7.227843,40009
7.228843,52668
7.229845,19476
7.230844,55629
7.231843,17828
7.232845,48171
7.233843,30951
7.234843,25894
7.235843,13459
7.236844,19124
7.237843,25542
7.238842,17700
7.239841,10882
7.240843,7313
7.241843,3680
7.242844,17284
7.243845,48107
7.244843,44570
7.245843,20581
7.246841,26406
7.247844,4593
7.248845,57822
7.249844,46699
7.250843,4609
7.251846,19476
7.252844,10786
7.253843,12499
7.254845,22021
7.255843,5201
7.256843,10882
7.257845,4833
7.258842,51212
7.259843,28711
7.260845,11442
7.261840,4016
7.262844,20629
7.263842,40233
7.264842,4113
7.265842,4257
7.266845,11234
7.267844,6913
7.268842,23477
7.269846,23845
7.270843,3760
7.271853,8578
7.272848,3584
7.273847,14083
7.274844,7937
7.275843,22757
7.276843,53421
7.277845,24069
7.278843,37929
7.279844,58190
7.280843,22165
7.281842,7521
7.282844,16291
7.283845,4385
7.284844,11714
7.285841,30535
7.286844,39209
7.287842,8242
7.288843,5473
7.289845,45451
7.290844,31479
7.291844,35288
7.292843,28422
7.293843,12258
7.294843,15875
7.295843,10962
7.296842,21077
7.297844,23381
7.298844,27494
7.299843,9826
7.300843,3744
7.301843,4321
7.302844,19492
7.303844,28214
7.304843,13523
7.305845,60126
7.306843,4817
7.307843,41322
7.308844,51340
7.309846,23109
7.310845,12515
7.311843,8610
7.312844,15443
7.313843,4113
7.314843,55773
7.315842,31335
7.316843,39753
7.477470,3744
7.478438,33784
7.479163,24774
7.479866,3936
7.480562,3520
7.481337,8706
7.482037,46907
7.482732,53036
7.483432,57630
7.484156,31367
7.484859,20196
7.485560,48443
7.486262,61262
7.486965,44138
7.487668,41642
7.488370,34056
7.489077,13011
7.489809,3344
7.490510,3504
7.491219,7681
7.491931,8177
7.492642,4609
7.493357,3456
7.494070,4241
7.494776,5761
7.495492,28759
7.496206,32343
7.496920,23221
7.497844,8322
7.498843,7201
7.499842,5985
7.500843,13619
7.501843,30183
7.502843,6321
7.503843,14131
7.504842,27894
7.505844,57325
7.506844,21605
7.507845,4016
7.508843,7905
7.509844,4609
7.510843,15971
7.511843,6273
7.512842,35080
7.513845,45275
7.514842,45163
7.515844,8450
7.516845,33608
7.517843,56125
7.518844,46299
7.519843,36760
7.520844,25190
7.521842,46267
7.522843,7313
7.523843,30535
7.524843,12963
7.525841,5921
7.526844,23765
7.527864,46443
7.528853,11074
7.529847,10082
7.530846,21093
7.531841,8546
7.532843,43434
7.533843,6321
7.534845,10514
7.535842,44106
7.536843,32743
7.537842,6801
7.538845,5185
7.539844,35096
7.540843,27158
7.541842,19412
7.542843,38377
7.543844,15139
7.544841,17844
7.545842,10482
7.546843,34776
7.547845,6321
7.548842,5297
7.549844,4289
7.550845,12194
7.551844,19300
7.552843,8450
7.553843,5745
7.554844,38089
7.555844,18692
7.556845,8482
7.557843,19812
7.558845,10898
7.559845,52460
7.560843,23893
7.561843,18612
7.562843,49340
7.563843,7649
7.564842,65535
7.565843,65535
7.566844,10850
7.567845,58558
7.568843,24469
7.569844,3872
7.570845,18164
7.571844,11602
7.572843,6353
7.573843,14403
7.574843,28422
7.575842,37897
7.576844,23685
7.577843,32295
7.578845,62751
7.579845,8882
7.580842,4993
7.581845,3952
7.582842,5633
7.583841,4865
7.584843,5361
7.585842,3600
7.586842,6497
7.587843,3840
7.588844,10802
7.589843,27686
7.590842,26758
7.591862,46011
7.592851,10498
7.593842,16932
7.594844,24565
7.595841,39737
7.596843,9410
7.597843,5921
7.598845,9906
7.599842,5345
7.600844,28134
7.601842,32199
7.602842,38313
7.603843,25062
7.604843,18372
7.605843,23829
7.606843,65535
7.607842,5761
7.608841,11954
7.609844,5505
7.610843,38985
7.611842,50028
7.612844,6289
7.613843,15939
7.614845,19252
7.615843,13043
7.616843,4177
7.617844,7873
7.618843,28166
7.619842,51756
7.620844,39449
7.621842,7953
7.622843,35384
7.623844,10514
7.624844,12178
7.625842,13203
7.626844,8274
7.627843,8145
7.628843,20997
7.629841,49836
7.630844,30119
7.631842,31127
7.632843,5473
7.633843,13523
7.634844,15859
7.635845,13379
7.636842,46603
7.637843,17572
7.638841,25942
7.639842,42442
7.640846,14211
7.641842,17300
7.642845,6305
7.643843,4241
7.654454,12002
7.654676,25334
7.654884,25862
7.655097,19748
7.655364,9218
7.655581,4641
7.655797,4177
7.656013,4080
7.656232,9490
7.656444,18436
7.656842,39721
7.657845,65535
7.658841,25014
7.659843,12483
7.660843,16932
7.661844,32199
7.662845,17316
7.663844,7377
7.664844,53068
7.665843,28919
7.666842,23093
7.667843,15875
7.668844,20260
7.669843,4545
7.670845,41354
7.779936,4016
7.780462,14147
7.780772,27990
7.781069,33288
7.781346,29351
7.781695,16179
7.781982,5681
7.782259,4801
7.782537,5025
7.782842,12066
7.783124,8226
7.783561,4032
7.783867,10418
7.784848,43034
7.785842,10242
7.786843,11842
7.787844,5809
7.788843,15059
7.789843,8177
7.790843,39337
7.791843,14211
7.792845,4016
7.793844,4833
7.794843,34056
7.795842,4961
7.796843,49692
7.797844,54333
7.798843,13363
7.799841,29879
7.800843,42458
7.801843,32327
7.802844,43370
7.803841,15619
7.804842,32135
7.805843,33448
7.806843,18612
7.807843,26454
7.808843,4577
7.809843,8210
7.810845,11922
7.811843,7761
7.812842,6753
7.813844,3392
7.814844,50924
7.815845,65535
7.816844,16644
7.817843,8177
7.818844,24117
7.819843,34120
7.820844,17588
7.821843,20196
7.822843,11778
7.823844,4753
7.824843,23573
7.825842,42650
7.826844,10082
7.827844,41386
7.828843,20292
7.829843,4865
7.830842,44298
7.831843,7249
7.832843,13891
7.833842,32615
7.834845,40249
7.835844,5425
7.836843,45947
7.837844,37625
7.838843,65535
7.839843,16275
7.840844,11538
7.841842,3792
7.842843,14659
7.843843,23781
7.844843,21173
7.845844,34184
7.846845,8258
7.847858,6161
7.848848,20565
7.849843,22149
7.850845,9410
7.851840,9826
7.852844,11794
7.853843,8081
7.854844,23957
7.855845,5185
7.856843,3872
7.857841,14131
7.858843,21573
7.859843,3776
7.860843,40953
7.861845,6497
7.862845,3648
7.863844,28871
7.864841,20276
7.865844,11250
7.866845,14339
7.867843,10386
7.868843,6753
7.869842,4417
7.870842,9986
7.871844,4016
7.872843,22917
7.873844,17764
7.874843,4881
7.875844,4689
7.876841,9922
7.877845,56333
7.878844,33752
7.879844,19092
7.880844,32023
7.881844,19988
7.882843,13507
7.883843,4145
7.884844,8210
7.885844,4929
7.886843,7249
7.887841,5025
7.888843,12258
7.889841,65535
7.890845,19044
7.891841,3968
7.892844,48555
7.893842,65535
7.894842,36776
7.895845,22549
7.896843,10146
7.897843,11378
7.898844,27606
7.899843,4032
7.900843,28086
7.901843,30679
7.902842,8177
7.903843,37625
7.904843,34824
7.905843,33384
7.906844,23525
7.907843,34632
7.908843,4064
7.909845,5665
7.910842,7889
7.911860,10690
7.912845,17540
7.913844,4145
7.914843,7313
7.915843,10466
7.916843,11650
7.917843,39177
7.918844,8177
7.919842,27702
7.920841,8498
7.921842,20132
7.922842,12242
7.923843,6929
7.924842,26470
7.925844,38409
7.926843,14051
7.927843,14259
7.928843,36552
7.929843,65535
7.930843,51500
7.931843,14643
7.932844,29399
7.933846,26502
7.934846,3904
7.935844,14659
7.936843,27398
7.937844,6561
7.938843,5921
7.939844,3888
7.940844,5201
7.941843,23461
7.942843,6865
7.943843,41002
7.944845,21061
7.945844,4193
7.946843,3936
7.947843,8498
7.948843,5697
7.949843,37929
7.950843,31495
7.951843,40889
7.952843,9826
7.953843,5185
7.954845,10658
7.955843,4177
7.956844,31975
7.957843,4753
7.958842,10242
7.959842,36937
7.960842,17988
7.961843,4513
7.962843,5169
7.963845,4161
7.964845,18964
7.965844,29159
7.966843,14915
7.967843,20565
7.968844,19300
7.969843,60078
7.970845,12082
8.129115,11826
8.129797,26198
8.130272,18660
8.130711,42554
8.131147,26726
8.131648,16259
8.132085,6561
8.132518,14435
8.132956,28855
8.133405,29143
8.133838,28390
8.134274,41722
8.134711,42858
8.135146,16420
8.135843,23237
8.136844,39913
8.137843,42458
8.138843,42378
8.139844,6945
8.140843,19860
8.141844,6337
8.142844,3008
8.143840,23269
8.144842,13187
8.145843,18228
8.146844,4064
8.147842,12258
8.148844,11682
8.149843,4177
8.150844,14371
8.151842,9890
8.152844,10962
8.153845,13411
8.154841,44122
8.155843,41994
8.156843,5473
8.157845,28935
8.158843,10690
8.159843,24614
8.160843,65535
8.161845,57630
8.162843,24213
8.163841,4929
8.164841,5297
8.165846,9874
8.166844,5553
8.167866,39065
8.168842,4305
8.169844,3296
8.170843,3168
8.171843,45579
8.172843,59294
8.173845,5281
8.174843,12034
8.175843,3984
8.176843,12611
8.177844,20148
8.178843,19924
8.179843,36792
8.180843,10082
8.181844,32663
8.182843,12723
8.183842,15555
8.184843,4257
8.185843,47787
8.186842,47371
8.187841,3632
8.188843,11138
8.189844,4000
8.190844,24501
8.191843,15331
8.192841,18180
8.193843,38409
8.194841,3520
8.195842,3904
8.196842,5985
8.197842,41626
8.198843,47835
8.199841,12162
8.200842,16404
8.201843,44266
8.202842,21189
8.203842,65535
8.204843,21205
8.205843,17236
8.206840,9010
8.207842,23589
8.208843,40953
8.209843,19940
8.210840,3488
8.211844,15283
8.212843,9058
8.213843,17076
8.214844,9938
8.215841,4641
8.216846,56205
8.217842,5041
8.218844,57341
8.219843,49692
8.220843,3456
8.221843,16404
8.222843,4945
8.223844,6833
8.224845,21301
8.225843,3296
8.226844,15971
8.227845,7361
8.228843,11266
8.229844,21733
8.230844,5649
8.231862,24806
8.232851,29479
8.233846,6753
8.234847,24069
8.235844,41258
8.236844,20180
8.237841,28695
8.238844,40953
8.239843,12114
8.240844,15379
8.241845,31159
8.242843,2992
8.243844,26150
8.244842,9778
8.245844,3568
8.246843,6433
8.247845,4641
8.248843,12034
8.249843,7425
8.250843,17732
8.251844,8177
8.252841,33272
8.253842,3392
8.254842,18852
8.255843,23365
8.256843,3840
8.257843,21125
8.258841,11426
8.259844,18756
8.260844,45979
8.261844,23269
8.262844,38073
8.263841,7473
8.264842,32824
8.265843,36552
8.266842,58446
8.267844,19988
8.268843,6673
8.269844,39561
8.270844,24886
8.271843,4353
8.272843,13395
8.273843,24854
8.274840,14851
8.275843,14067
8.276841,23285
8.277843,4961
8.278843,32727
8.279843,24902
8.280843,13971
8.281843,4929
8.282843,43242
8.283844,17172
8.284842,11042
8.285843,3680
8.286843,5265
8.287843,13187
8.288845,33128
8.289844,24501
8.290845,26470
8.291843,25046
8.292844,4753
8.293844,24982
8.294844,32231
8.295858,29575
8.296850,16388
8.297843,6545
8.298842,51484
8.299845,38953
8.300843,3232
8.301843,19380
8.302842,11154
8.303843,22325
8.304843,3936
8.305842,6305
8.306843,45163
8.307845,49932
8.308843,13715
8.309843,12771
8.310843,65535
8.311842,65535
8.312843,19220
8.313843,23317
8.314844,18004
8.315844,3136
8.316843,3232
8.317842,5121
8.318844,15571
8.319842,41930
8.320843,19204
8.474052,52908
8.474899,26262
8.475517,17972
8.476113,9890
8.476700,2400
8.477353,18676
8.477942,32551
8.478523,28582
8.479108,7649
8.479709,10450
8.480301,17076
8.480894,12931
8.481478,17892
8.482067,3584
8.482661,6993
8.483253,8482
8.483849,20677
8.484464,26582
8.485056,4801
8.485844,20100
8.486843,10514
8.487860,7569
8.488851,8001
8.489844,2592
8.490841,10706
8.491843,16868
8.492841,33256
8.493841,15075
8.494842,4705
8.495843,8017
8.496843,19300
8.497843,3328
8.498844,28935
8.499843,3712
8.500842,30567
8.501842,53677
8.502843,12579
8.503843,33304
8.504845,6353
8.505844,6769
8.506842,44170
8.507841,19092
8.508843,14339
8.509843,4929
8.510842,16468
8.511842,6673
8.512844,5137
8.513845,29255
8.514843,13779
8.515845,38201
8.516843,4625
8.517841,5329
8.518843,22293
8.519842,10114
8.520844,14115
8.521843,4913
8.522844,8065
8.523844,4353
8.524844,6321
8.525844,4449
8.526842,10018
8.527843,13459
8.528844,3952
8.529843,24565
8.530843,6097
8.531844,35416
8.532843,14099
8.533844,15251
8.534845,7521
8.535845,17460
8.536844,9218
8.537844,9506
8.538843,5601
8.539843,10370
8.540843,4241
8.541842,37385
8.542844,34984
8.543844,9714
8.544842,42842
8.545845,38633
8.546843,3408
8.547843,4449
8.548843,24117
8.549843,4513
8.550843,31303
8.551859,4689
8.552847,15075
8.553843,5793
8.554843,15203
8.555845,30503
8.556843,8962
8.557843,6161
8.558844,37065
8.559843,20100
8.560844,46955
8.561840,3264
8.562845,3728
8.563843,53661
8.564843,47355
8.565841,16804
8.566845,3504
8.567844,27158
8.568843,3728
8.569841,7249
8.570843,11154
8.571842,3552
8.572843,6481
8.573843,45002
8.574843,26982
8.575843,37289
8.576843,6065
8.577844,4000
8.578841,13699
8.579843,9874
8.580842,24838
8.581843,11522
8.582843,5361
8.583841,14003
8.584844,16259
8.585845,65535
8.586844,27446
8.587842,8914
8.588844,16708
8.589845,4129
8.590842,10658
8.591844,3376
8.592844,19908
8.593842,5633
8.594843,3936
8.595841,7905
8.596845,4545
8.597844,21189
8.598843,35096
8.599844,16420
8.600843,28518
8.601844,11794
8.602843,9874
8.603841,3040
8.604843,17812
8.605843,24485
8.606843,29319
8.607844,16948
8.608842,30951
8.609844,39209
8.610843,29703
8.611844,17444
8.612844,3552
8.613843,12563
8.614860,19444
8.615851,40041
8.616843,4097
8.617845,8722
8.618845,8177
8.619842,9122
8.620843,61679
8.621842,36280
8.622843,10898
8.623844,18916
8.624842,9010
8.625843,4097
8.626843,9394
8.627843,11746
8.628843,4785
8.629843,15827
8.630842,12371
8.631844,15411
8.632843,26438
8.633844,31879
8.634846,26502
8.635842,3776
8.636843,23013
8.637843,25766
8.638842,21429
8.639842,9122
8.640843,30215
8.641844,17460
8.642843,29463
8.643843,8177
8.644841,21093
8.645843,14419
8.646843,10242
8.647843,9138
8.648845,6689
8.649842,12323
8.650843,6065
8.651844,3440
8.652844,5409
8.653843,63311
8.654841,21189
8.655843,22549
8.656843,5313
8.657843,11906
8.658844,21605
8.659841,3984
8.660843,7377
8.661844,5569
8.662844,52716
8.663841,10130
8.664842,12082
8.665843,4529
8.781731,6321
8.782750,5377
8.783539,10114
8.784301,4385
8.785055,5649
8.785877,4993
8.786622,9362
8.787372,2960
8.788122,9218
8.788888,6113
8.789635,6401
8.790387,64415
8.791140,52828
8.791892,11666
8.792642,36616
8.793398,40265
8.794155,19924
8.794934,24501
8.795687,30087
8.796443,10930
8.797203,11314
8.797961,4753
8.798723,7985
8.799478,7137
8.800237,5137
8.801001,19780
8.801755,16436
8.802516,30999
8.803279,9794
8.804041,3104
8.804801,6305
8.805571,26822
8.806332,50572
8.807137,28246
8.808073,7601
8.808853,5713
8.809844,16388
8.810843,5761
8.811843,4465
8.812842,3632
8.813842,16660
8.814843,13699
8.815844,21285
8.816845,49035
8.817842,35016
8.818842,7249
8.819841,44362
8.820843,17188
8.821845,6097
8.822843,5921
8.823843,3520
8.824844,5601
8.825842,7409
8.826842,4897
8.827843,4785
8.828843,5761
8.829845,27446
8.830842,12194
8.831844,25702
8.832844,32087
8.833845,5985
8.834844,22629
8.835844,9730
8.836843,8834
8.837842,10546
8.848090,11458
8.848314,4561
8.848526,6017
8.848730,10642
8.848943,11842
8.849154,10818
8.849365,8161
8.849577,7633
8.849792,7425
8.850010,7057
8.850842,22245
8.851845,24565
8.852842,4257
8.853844,4865
8.854842,8466
8.855843,3536
8.856842,17940
8.857843,13571
8.858842,6145
8.859842,12595
8.860844,5841
8.861843,31447
8.862843,3232
8.863842,5473
8.864843,3568
8.865844,12483
8.866842,3792
8.867842,3488
8.868843,16291
8.869844,5713
8.870843,15827
8.871857,15123
8.872846,9794
8.873841,10386
8.874845,21397
8.875843,8370
8.876843,8113
8.877844,19028
8.878843,19012
8.879844,11906
8.880841,14483
8.881845,4449
8.882843,10018
8.883844,8177
8.884844,7313
8.885841,11746
8.886844,22869
8.887846,22917
8.888845,7297
8.889844,3392
8.890843,6657
8.891843,9906
8.892843,40986
8.893842,55501
8.894845,5185
8.895843,37017
8.896842,9170
8.897843,9714
8.898845,30375
8.899841,31319
8.900844,24774
8.901844,11394
8.902843,10642
8.903845,22357
8.904842,40217
8.905842,4032
8.906842,35336
8.907844,32391
8.908844,3520
8.909843,32824
8.910844,31303
8.911844,5633
8.912842,3232
8.913844,6097
8.914843,17508
8.915843,9282
8.916843,14595
8.917841,16564
8.918843,33736
8.919843,3536
8.920843,24565
8.921844,8674
8.922843,7633
8.923843,7937
8.924845,22757
8.925842,5921
8.926845,32087
8.927844,30871
8.928844,15187
8.929845,9058
8.930841,23365
8.931843,6433
8.932843,22021
8.933844,22789
8.934844,3328
8.935859,6113
8.936850,15779
8.937848,17876
8.938843,20164
8.939843,20741
8.940843,18324
8.941842,13907
8.942843,9282
8.943844,16211
8.944842,4801
8.945843,26630
8.946845,4305
8.947843,8754
8.948842,16900
8.949843,15107
8.950845,30103
8.951842,31895
8.952843,17892
8.953842,22661
8.954843,4337
8.955842,38937
8.956843,4097
8.957841,23573
8.958843,20404
8.959843,26102
8.960843,12002
8.961844,16660
8.962842,11906
8.963842,14211
8.964843,14643
8.965842,5409
8.966843,28695
8.967844,15747
8.968843,17364
8.969842,6721
8.970843,4561
8.971843,17988
8.972843,34472
8.973843,19396
8.974845,5633
9.140460,7633
9.141076,3328
9.141452,18836
9.141800,29783
9.142143,26966
9.142553,6929
9.142896,11474
9.143235,27094
9.143575,35176
9.143938,29367
9.144281,17988
9.144622,8802
9.144966,3904
9.145845,29735
9.146843,24485
9.147845,8514
9.148843,16243
9.149842,11266
9.150842,16083
9.151844,16067
9.152843,15811
9.153845,11842
9.154843,5697
9.155841,10546
9.156844,3344
9.157843,27990
9.158843,3744
9.159845,3424
9.160845,4177
9.161844,23461
9.162842,5153
9.163843,3920
9.164843,21813
9.165844,5121
9.166844,5809
9.167844,26790
9.168843,10546
9.169843,6593
9.170842,12226
9.171845,5777
9.172841,5777
9.173843,13331
9.174843,6017
9.175842,5521
9.176843,16804
9.177843,21925
9.178844,11922
9.179843,4753
9.180844,5137
9.181843,7649
9.182844,6209
9.183844,3600
9.184841,6593
9.185843,31575
9.186843,36216
9.187843,13059
9.188841,3328
9.189844,22997
9.190869,11650
9.191848,13267
9.192843,5409
9.193844,8722
9.194843,15523
9.195845,8626
9.196843,6529
9.197843,5233
9.198843,14723
9.199842,3456
9.200845,5025
9.201843,16227
9.202845,8177
9.203846,4433
9.204843,8722
9.205842,16468
9.206843,12483
9.207844,5841
9.208842,12178
9.209844,17204
9.210842,15043
9.211843,5681
9.212844,17316
9.213842,7889
9.214841,37289
9.215844,8145
9.216843,21685
9.217843,13459
9.218843,27670
9.219843,6689
9.220841,3936
9.221845,11842
9.222843,3488
9.223842,15795
9.224844,11394
9.225845,5201
9.226840,30487
9.227843,16820
9.228844,8882
9.229843,5505
9.230843,20581
9.231843,12995
9.232846,16211
9.233843,9346
9.234843,3488
9.235845,6993
9.236843,12162
9.237844,9666
9.238841,17316
9.239843,11458
9.240844,3792
9.241841,3488
9.242843,11090
9.243843,30951
9.244842,7073
9.245843,4433
9.246843,19284
9.247843,4048
9.248845,18580
9.249843,16692
9.250843,13235
9.251844,10898
9.252841,3760
9.253843,15795
9.254860,8354
9.255847,18756
9.256843,31175
9.257843,7633
9.258844,5665
9.259843,4273
9.260843,4449
9.261845,42714
9.262843,17028
9.263843,8370
9.264844,10754
9.265844,11746
9.266844,9986
9.267844,12274
9.268844,45547
9.269843,15651
9.270845,8177
9.271843,4064
9.272845,9922
9.273844,32968
9.274845,8322
9.275844,13587
9.276843,3376
9.277842,8177
9.278845,10946
9.279842,19364
9.280845,33208
9.281842,6513
9.282843,11586
9.283845,6065
9.284843,44266
9.285842,14307
9.286844,9266
9.287845,6657
9.288843,17540
9.289843,4721
9.290845,18212
9.291843,16147
9.292843,3840
9.293841,37289
9.294844,27574
9.295843,12242
9.296843,3488
9.297843,8001
9.298843,11522
9.299843,30519
9.300845,3648
9.301843,9634
9.302845,22757
9.303843,3392
9.304843,8434
9.305843,4417
9.306843,4385
9.307844,4913
9.308843,9474
9.309843,8546
9.310843,4881
9.311843,5505
9.312844,18644
9.313844,3856
9.314844,4000
9.315842,10562
9.316844,14483
9.317842,5041
9.318869,4993
9.319849,3360
9.320844,22597
9.321844,4273
9.322841,12835
9.323843,3712
9.324842,19732
9.325843,3728
9.326843,38217
9.327844,32551
9.328843,9186
9.329845,4113
9.330844,28502
9.331843,5921
9.488688,7953
9.489457,3296
9.489984,6369
9.490481,14115
9.490980,24341
9.491538,23573
9.492035,24005
9.492527,21397
9.493027,12226
9.493544,6497
9.494042,5281
9.494532,18212
9.495028,27878
9.495524,18260
9.496022,10562
9.496524,5313
9.497023,7121
9.497842,7569
9.498844,14307
9.499843,10498
9.500843,39177
9.501845,34920
9.502844,15315
9.503844,37561
9.504843,45771
9.505845,53965
9.506844,26710
9.507845,34328
9.508844,16660
9.509843,8866
9.510842,4321
9.511865,11618
9.512850,3760
9.513845,6881
9.514844,4657
9.515845,15299
9.516845,8338
9.517843,8546
9.518843,3248
9.519844,3504
9.520843,3632
9.521842,4497
9.522845,6577
9.523843,30551
9.524843,7441
9.525844,5025
9.526842,15891
9.527842,11698
9.528843,5249
9.529841,37801
9.530844,20436
9.531843,11730
9.532843,9202
9.533844,7809
9.534843,4353
9.535843,3664
9.536841,15763
9.537844,8081
9.538844,8690
9.539844,26934
9.540843,32119
9.541845,21829
9.542845,3328
9.543843,40073
9.544844,21989
9.545845,22581
9.546845,4897
9.547842,7633
9.548842,3680
9.549843,14499
9.550843,4497
9.551844,25094
9.552843,17252
9.553843,6929
9.554844,6993
9.555843,7969
9.556843,8081
9.557843,11538
9.558840,20533
9.559843,26470
9.560843,10626
9.561843,6337
9.562845,16772
9.563845,14947
9.564845,7329
9.565845,10242
9.566842,31783
9.567843,7617
9.568841,8962
9.569844,18580
9.570842,15507
9.571843,3888
9.572842,15667
9.573843,24389
9.574844,3616
9.575859,13459
9.576849,8242
9.577843,12739
9.578844,5905
9.579843,3760
9.580843,4016
9.581843,3680
9.582842,7121
9.583845,9122
9.584845,4369
9.585843,10210
9.586845,3712
9.587844,8866
9.588843,3680
9.589844,7057
9.590844,3408
9.591843,12146
9.592843,4881
9.593843,8882
9.594845,13603
9.595843,24373
9.596842,26950
9.597843,15795
9.598841,11314
9.599843,41002
9.600843,51756
9.601844,6753
9.602842,13763
9.603841,3824
9.604844,3808
9.605843,6353
9.606845,3760
9.607842,6449
9.608844,3344
9.609843,24069
9.610841,11858
9.611843,18452
9.612844,14755
9.613843,3744
9.614842,7953
9.615843,11202
9.616843,6017
9.617844,3792
9.618844,19412
9.619844,8706
9.620843,25270
9.621843,26662
9.622841,18180
9.623845,4385
9.624844,6273
9.625844,5585
9.626841,8418
9.627845,11858
9.628841,6945
9.629844,4193
9.630843,16692
9.631841,4817
9.632843,33176
9.633843,20629
9.634843,4529
9.635841,5889
9.636839,9154
9.637844,13059
9.638843,6289
9.639854,30279
9.640849,32695
9.641846,24918
9.642843,6721
9.643844,22085
9.644842,58526
9.645842,7297
9.646844,9410
9.647843,15171
9.648842,13715
9.649843,9090
9.650843,18452
9.651841,60206
9.652845,30183
9.653843,5729
9.654844,45211
9.655843,39433
9.656843,6737
9.657845,15507
9.658844,5249
9.659844,15539
9.660843,7857
9.661843,4016
9.662843,9762
9.663843,11186
9.664843,6881
9.665840,4080
9.666842,14195
9.667842,14915
9.668843,10274
9.669843,33336
9.670845,7841
9.671843,57822
9.672843,65535
9.673843,7137
9.674842,23093
9.675843,23605
9.676843,22933
9.677842,12595
9.678843,14099
9.679842,10754
9.829062,15459
9.829974,4817
9.830660,22037
9.831486,13587
9.832155,15123
9.832873,14995
9.833521,3712
9.834172,6497
9.834817,8290
9.835480,13219
9.836130,13587
9.836779,3328
9.837429,3808
9.838082,3296
9.838728,5601
9.839381,5217
9.840039,5681
9.840711,2208
9.841363,6289
9.842020,19540
9.842671,4064
9.843329,3664
9.843986,13267
9.844842,4097
9.845842,7985
9.846843,6977
9.847843,5041
9.848845,5057
9.849842,16884
9.850843,8177
9.851842,46475
9.852845,8994
9.853842,3984
9.854844,4513
9.855843,9778
9.856845,16003
9.857842,3920
9.858841,27654
9.859842,20308
9.860843,49676
9.861845,12691
9.862843,55101
9.863843,54877
9.864844,33592
9.865844,16708
9.866844,23125
9.867843,8690
9.868842,4849
9.869845,5457
9.870843,12867
9.871843,15299
9.872843,7105
9.873843,15779
9.874845,7745
9.875843,5169
9.876846,19748
9.877844,15203
9.878844,17316
9.879843,11074
9.880845,7121
9.881843,4385
9.882843,4625
9.883843,17060
9.884843,4080
9.885843,3648
9.886843,3728
9.887843,3872
9.888845,7249
9.889844,26806
9.890845,7809
9.891845,6065
9.892843,3840
9.893843,4673
9.894869,35976
9.895850,5905
9.896846,45691
9.897846,38361
9.898845,5377
9.899845,3648
9.900842,4497
9.901843,5553
9.902844,17732
9.903845,9490
9.904845,4689
9.905842,26950
9.906843,7089
9.907844,18724
9.908844,21269
9.909842,26854
9.910843,12787
9.911844,22341
9.912843,35208
9.913845,4097
9.914841,4481
9.915844,6033
9.916843,3776
9.917842,5697
9.918843,4145
9.919844,4016
9.920843,7057
9.921843,5233
9.922843,4705
9.923843,5489
9.924844,8274
9.925843,15315
9.926844,22629
9.927842,3792
9.928845,4865
9.929843,15139
9.930843,10450
9.931844,18740
9.932842,15379
9.933844,22661
9.934843,14611
9.935843,5089
9.936845,4129
9.937843,14227
9.938843,4097
9.939845,6801
9.940841,7585
9.941843,14051
9.942843,3248
9.943845,4241
9.944843,5553
9.945843,14563
9.946843,22405
9.947843,20789
9.948843,43530
9.949845,27046
9.950843,7473
9.951843,13155
9.952845,9730
9.953842,15619
9.954844,13315
9.955843,4561
9.956844,4016
9.957843,13427
9.958886,13523
9.959849,12419
9.960843,3536
9.961845,7169
9.962843,10338
9.963843,23845
9.964841,6593
9.965843,12467
9.966842,8738
9.967843,7121
9.968843,12851
9.969842,8754
9.970842,10754
9.971843,23397
9.972843,15779
9.973845,5985
9.974842,33096
9.975843,32984
9.976840,20805
9.977843,8834
9.978843,9618
9.979843,4048
9.980842,5249
9.981843,7281
9.982843,22277
9.983843,12194
9.984845,11810
9.985843,13635
9.986844,22421
9.987844,38809
9.988843,17860
9.989842,22501
9.990843,27062
9.991844,30359
9.992845,41994
9.993844,5057
9.994843,7697
9.995844,7425
9.996843,4000
9.997843,3904
9.998842,6113
9.999844,19588
10.000842,19444
10.002605,37961
10.003493,22853
10.004280,9122
10.005032,12194
10.005841,11794
10.006841,6593
10.007844,6657
10.008843,5137
10.009843,26886
10.010843,22677
10.011843,13155
10.012843,18276
10.013844,15107
10.014843,65535
10.015841,39161
10.016845,34104
10.017845,10882
10.018843,25158
10.019843,55757
10.020843,18244
10.134786,20917
10.135871,8738
10.136715,2624
10.137533,8882
10.138346,10578
10.139227,7969
10.140034,6657
10.140848,4753
10.141657,5601
10.142493,7233
10.143309,14547
10.144117,4529
10.144934,5297
10.145743,7825
10.153206,34104
10.153449,29703
10.153667,23813
10.153899,20388
10.154115,22597
10.154333,21861
10.154547,19412
10.154759,8786
10.154985,4961
10.155200,4000
10.155843,20821
10.156841,43786
10.157843,16788
10.158843,6689
10.159845,4929
10.160844,23493
10.161843,17028
10.162844,14035
10.163844,8001
10.164843,11714
10.165843,4369
10.166843,6561
10.167845,47915
10.168844,40089
10.169843,30151
10.170845,11362
10.171845,8786
10.172843,9986
10.173843,6673
10.174843,17060
10.175842,5073
10.176845,5057
10.177843,26678
10.178843,4641
10.179843,3984
10.180843,6673
10.181843,17588
10.182845,8177
10.183843,6641
10.184844,9794
10.185844,18788
10.186842,21285
10.187844,4881
10.188843,5585
10.189843,3776
10.190841,9234
10.191844,5217
10.192842,8097
10.193843,4497
10.194844,6497
10.195842,6689
10.196845,7137
10.197841,20020
10.198843,3600
10.199843,7777
10.200840,3872
10.201843,13411
10.202842,7665
10.203845,22101
10.204843,5761
10.205845,4865
10.206843,8402
10.207844,37273
10.208845,25222
10.209845,14211
10.210843,4097
10.211844,4000
10.212843,14739
10.213843,6177
10.214842,8898
10.215858,18756
10.216850,8706
10.217846,13715
10.218843,12771
10.219843,44394
10.220844,33960
10.221846,40457
10.222844,24021
10.223843,3888
10.224842,5857
10.225843,4289
10.226844,5889
10.227841,7329
10.228845,5233
10.229843,8194
10.230845,4513
10.231842,18628
10.232844,4769
10.233846,5201
10.234843,8834
10.235841,7857
10.236843,9570
10.237843,3936
10.238844,8033
10.239844,17668
10.240843,20116
10.241844,28006
10.242843,4449
10.243843,21845
10.244842,39145
10.245841,16131
10.246843,9026
10.247841,9506
10.248842,9842
10.249843,5985
10.250839,3056
10.251845,5329
10.252845,8210
10.253843,11602
10.254845,7281
10.255841,21685
10.256843,19604
10.257845,11890
10.258843,49740
10.259843,21509
10.260846,10674
10.261843,8626
10.262844,13763
10.263843,12627
10.264843,15667
10.265844,9282
10.266843,16532
10.267841,7857
10.268842,4161
10.269843,8658
10.270843,12002
10.271844,3632
10.272843,5729
10.273845,4000
10.274842,4449
10.275844,4529
10.276844,3744
10.277842,5681
10.278842,8450
10.279855,4897
10.280849,3632
10.281842,6865
10.282844,23973
10.283843,28598
10.284842,5793
10.285843,4321
10.286843,16676
10.287841,6097
10.288843,4801
10.289844,6257
10.290843,6961
10.291843,7041
10.292844,4529
10.293845,3792
10.294843,4129
10.295845,5169
10.296844,4369
10.297844,10130
10.298844,4305
10.299841,5873
10.300843,6305
10.301843,10082
10.302843,3776
10.303841,9954
10.304845,4545
10.305842,6849
10.306845,6273
10.307844,5025
10.308842,4513
10.309843,3776
10.310844,9042
10.311843,8914
10.312844,5889
10.313843,9026
10.314842,12066
10.315843,23173
10.316845,22213
10.317843,4177
10.318843,4609
10.319842,7873
10.320843,8354
10.321842,8610
10.322844,6337
10.323843,5681
10.324844,12419
10.325842,4032
10.326843,5809
10.327842,4769
10.328843,3808
10.329843,4497
10.330844,4449
10.485606,4177
10.486240,3200
10.486638,3488
10.487021,6881
10.487395,6865
10.487840,5825
10.488211,4865
10.488587,3456
10.488965,4241
10.489359,8370
10.489735,12995
10.490112,8322
10.490489,6705
10.490868,5009
10.491843,4000
10.492843,3712
10.493843,4225
10.494844,3936
10.495842,9666
10.496843,5393
10.497843,4913
10.498842,4064
10.499844,3568
10.500842,2912
10.501843,5569
10.502843,5153
10.503843,6577
10.504844,5185
10.505843,5025
10.506841,5841
10.507843,6193
10.508844,4833
10.509844,4129
10.510844,3760
10.511843,6081
10.512841,7265
10.513843,3408
10.514842,3408
10.515842,3040
10.516844,5393
10.517843,7473
10.518841,2704
10.519842,3456
10.520842,4673
10.521841,5697
10.522845,4641
10.523842,3216
10.524845,4064
10.525845,3856
10.526841,2816
10.527845,4177
10.528845,3536
10.529844,4145
10.530843,3760
10.531844,3792
10.532843,4064
10.533845,4817
10.534845,3680
10.535869,5409
10.536845,5297
10.537844,4449
10.538846,4353
10.539841,5649
10.540843,6049
10.541843,3664
10.542844,7489
10.543842,4609
10.544844,3488
10.545843,4641
10.546844,4000
10.547846,4097
10.548843,3680
10.549844,3152
10.550843,4161
10.551842,4401
10.552841,5169
10.553842,3856
10.554843,3616
10.555845,4449
10.556843,4913
10.557844,3856
10.558844,3904
10.559844,3840
10.560843,6657
10.561843,4801
10.562843,4961
10.563843,3520
10.564842,4305
10.565844,3568
10.566843,5377
10.567844,3920
10.568843,6849
10.569842,4369
10.570845,6609
10.571844,5953
10.572844,4497
10.573842,2768
10.574844,4321
10.575845,3904
10.576845,3856
10.577841,4545
10.578843,6705
10.579843,3280
10.580844,4913
10.581841,6017
10.582842,3136
10.583843,7137
10.584843,3888
10.585841,5793
10.586845,5329
10.587844,3504
10.588842,5921
10.589843,4145
10.590844,5025
10.591840,3808
10.592843,3904
10.593843,3472
10.594843,2880
10.595844,3376
10.596843,2560
10.597844,3616
10.598842,5889
10.599864,3040
10.600847,3600
10.601844,3568
10.602845,4673
10.603844,4209
10.604843,6289
10.605844,5681
10.606842,4177
10.607845,4513
10.608843,3424
10.609843,3776
10.610843,3536
10.611842,3344
10.612841,7185
10.613845,3584
10.614844,3424
10.615841,2560
10.616843,7505
10.617843,4417
10.618844,3712
10.619844,3536
10.620843,3728
10.621843,4048
10.622843,4657
10.623843,3104
10.624845,3584
10.625842,4000
10.626843,5009
10.627844,4289
10.628843,3664
10.629845,7729
10.630843,4064
10.631843,8258
10.632843,4785
10.633843,4641
10.634844,3520
10.635843,2864
10.636843,3360
10.637843,2864
10.638842,2816
10.639845,3728
10.640842,8097
10.641843,5569
10.642843,3552
10.643842,3872
10.644843,4881
10.645844,3760
10.646843,3008
10.647844,3760
10.648842,3904
10.649844,4737
10.650842,3232
10.651843,6481
10.652843,3824
10.653842,3968
10.654843,2784
10.655844,3120
10.656842,5009
10.657844,5025
10.658843,4513
10.659844,4064
10.660842,2528
10.661844,5809
10.662843,3792
10.663859,4769
10.664852,4881
10.665845,3392
10.666844,4401
10.667843,2848
10.668844,3664
10.669844,4449
10.670842,3072
10.671841,2784
10.672843,3328
10.673844,4241
10.674843,3488
10.675843,4177
10.676843,3024
10.829577,4145
10.830373,2560
10.830943,3408
10.831474,3968
10.832009,2800
10.832596,3648
10.833128,4609
10.833652,3568
10.834180,4016
10.834726,8210
10.835260,5393
10.835788,6561
10.836323,4273
10.836857,3104
10.837387,3920
10.837920,5377
10.838451,4417
10.839006,3344
10.839843,2560
10.840844,3472
10.841843,4129
10.842844,2816
10.843841,4497
10.844845,3712
10.845842,3648
10.846844,3280
10.847844,4193
10.848844,3984
10.849845,3296
10.850842,2768
10.851844,3040
10.852843,4273
10.853843,5841
10.854845,3104
10.855865,4481
10.856852,3552
10.857847,4161
10.858844,2480
10.859843,3216
10.860842,2720
10.861845,3520
10.862843,3120
10.863842,4561
10.864843,4080
10.865844,2992
10.866844,2752
10.867843,5345
10.868844,5953
10.869843,5073
10.870843,3360
10.871843,3184
10.872842,2960
10.873844,4193
10.874842,3552
10.875843,2848
10.876843,2704
10.877844,4529
10.878843,2912
10.879845,3616
10.880842,6705
10.881843,6641
10.882842,3024
10.883843,2960
10.884844,2368
10.885842,3392
10.886846,3248
10.887843,4257
10.888843,7425
10.889843,3136
10.890845,8658
10.891842,8145
10.892843,8610
10.893843,5297
10.894843,3728
10.895843,3536
10.896843,2624
10.897842,4337
10.898844,4737
10.899845,3648
10.900845,3360
10.901841,3680
10.902843,4897
10.903843,3248
10.904843,5617
10.905845,5025
10.906843,2656
10.907843,3232
10.908844,2704
10.909843,4673
10.910846,3104
10.911843,2336
10.912843,3536
10.913841,4353
10.914844,4929
10.915844,3232
10.916845,2752
10.917843,4129
10.918856,3072
10.919852,3472
10.920846,2640
10.921843,5313
10.922844,4433
10.923843,4257
10.924842,3520
10.925843,5585
10.926842,4097
10.927844,2608
10.928844,3312
10.929845,2512
10.930843,3168
10.931842,5409
10.932843,3584
10.933842,5889
10.934844,6337
10.935844,4641
10.936844,2912
10.937844,2976
10.938844,3920
10.939844,3488
10.940844,3104
10.941843,4369
10.942843,3520
10.943843,2368
10.944843,4657
10.945843,9122
10.946845,6209
10.947844,2864
10.948842,4337
10.949843,4449
10.950846,3408
10.951843,3008
10.952845,2384
10.953843,3392
10.954843,2448
10.955843,3344
10.956843,5697
10.957843,3904
10.958843,5217
10.959843,4417
10.960844,3120
10.961844,3792
10.962845,7489
10.963842,4817
10.964844,4481
10.965842,4016
10.966843,3760
10.967843,3584
10.968840,4048
10.969843,3344
10.970842,4161
10.971844,3760
10.972842,4625
10.973842,2720
10.974845,3840
10.975842,5809
10.976843,10130
10.977843,2528
10.978840,2816
10.979844,2832
10.980845,2832
10.981846,7057
10.982861,3712
10.983847,4913
10.984846,3200
10.985843,2384
10.986844,2464
10.987844,2880
10.988844,3904
10.989842,4048
10.990844,3840
10.991842,3472
10.992842,3104
10.993844,4177
10.994845,3792
10.995843,2752
10.996843,2848
10.997842,4625
10.998842,3344
10.999844,3168
11.000842,3008
11.001843,6417
11.002844,5937
11.003842,3520
11.004843,2576
11.005844,2704
11.006843,3136
11.007842,4289
11.008844,2816
11.009842,2576
11.010843,3856
11.011845,4513
11.012844,4257
11.013843,3808
11.014843,2752
11.015842,2976
11.016840,3984
11.017843,6049
11.018843,2896
11.019844,4145
11.020842,3136
11.171582,7697
11.172539,3904
11.173256,4241
11.173937,4849
11.174618,4385
11.175486,3216
11.176178,4080
11.176863,5073
11.177540,5073
11.178239,4145
11.178923,4177
11.179600,3744
11.180285,3280
11.180970,6225
11.181650,5169
11.182335,2816
11.183017,5009
11.183727,4897
11.184419,4337
11.185112,4737
11.185797,4481
11.186490,2656
11.187178,3472
11.187867,3024
11.188551,3472
11.189246,2512
11.189942,3616
11.190843,3360
11.191844,2992
11.192843,2672
11.193843,3328
11.194843,2896
11.195842,5249
11.196844,7489
11.197844,4113
11.198842,2976
11.199842,2768
11.200843,2992
11.201844,2880
11.202843,7185
11.203843,3120
11.204845,2448
11.205846,6177
11.206842,5281
11.207843,3200
11.208843,2880
11.209843,3856
11.210843,4545
11.211842,3264
11.212843,2848
11.213844,4161
11.214845,6625
11.215842,5633
11.216843,2608
11.217842,2912
11.218845,3392
11.219844,2640
11.220844,2944
11.221843,6177
11.222843,2592
11.223843,3808
11.224844,3392
11.225843,4353
11.226842,4048
11.227844,2912
11.228844,3776
11.229844,3040
11.230844,6689
11.231843,3136
11.232844,3072
11.233844,3120
11.234842,3920
11.235843,3936
11.236840,5729
11.237845,4625
11.238844,3680
11.239859,3232
11.240850,3232
11.241841,5313
11.242843,4032
11.243844,2512
11.244843,2704
11.245844,4993
11.246843,4609
11.247841,3600
11.248843,3488
11.249846,3200
11.250843,2736
11.251843,2608
11.252845,2608
11.253842,5313
11.254844,3120
11.255844,4337
11.256845,3232
11.257843,7185
11.258843,2832
11.259843,2688
11.260842,2688
11.261845,2976
11.262845,2480
11.263843,5649
11.264842,5713
11.265843,2784
11.266843,2832
11.267844,6161
11.268843,3680
11.269843,5521
11.270841,3248
11.271843,2960
11.272843,2960
11.273843,3328
11.274844,2784
11.275843,6049
11.276843,5713
11.277842,3008
11.278843,2560
11.279842,2864
11.280843,4897
11.281841,5281
11.282842,3280
11.283843,2912
11.284843,5649
11.285846,4865
11.286842,2640
11.287844,3488
11.288842,4449
11.289843,4064
11.290844,2992
11.291843,2608
11.292843,2864
11.293843,4337
11.294841,3408
11.295845,5121
11.296843,5553
11.297843,2992
11.298843,4337
11.299844,4000
11.300843,7105
11.301844,4625
11.302843,2576
11.303856,4064
11.304844,2608
11.305844,2800
11.306843,7137
11.307843,3712
11.308843,3552
11.309841,3024
11.310842,3024
11.311842,2944
11.312844,4721
11.313842,4961
11.314842,3104
11.315843,4353
11.316841,4161
11.317842,5409
11.318843,2944
11.319843,3488
11.320843,2576
11.321842,3376
11.322844,5777
11.323841,3216
11.324845,3824
11.325843,5793
11.326843,4000
11.327842,5009
11.328842,2912
11.329841,4465
11.330843,4497
11.331843,3120
11.332844,3136
11.333843,3632
11.334843,6113
11.335843,4385
11.336842,3760
11.337842,3008
11.338844,2736
11.339843,3520
11.340844,2960
11.341843,2864
11.342841,5937
11.343842,2832
11.344844,2496
11.345841,8946
11.346844,6481
11.347844,5041
11.348842,4353
11.349845,3168
11.350842,3680
11.351843,3632
11.352842,3152
11.353843,2720
11.354843,3856
11.355844,3936
11.356843,3136
11.357842,5169
11.358843,3008
11.359842,3136
11.360844,3632
11.361844,3472
11.362843,5569
11.480957,5009
11.481441,5777
11.481713,6641
11.481970,5521
11.482211,4705
11.482475,4689
11.482711,4225
11.482957,3552
11.483201,2704
11.483462,3536
11.483700,3904
11.483948,4673
11.484843,3600
11.485843,3184
11.486843,2672
11.487843,3472
11.488843,3888
11.489844,4865
11.490844,3424
11.491844,3072
11.492843,2864
11.493843,3616
11.494843,4129
11.495867,5169
11.496848,5697
11.497845,2960
11.498842,3456
11.499843,2816
11.500845,5521
11.501843,2752
11.502845,5809
11.503843,3456
11.504843,4497
11.505844,6081
11.506842,3568
11.507844,4401
11.508843,3072
11.509843,3680
11.510842,3280
11.511842,2576
11.512843,4881
11.513845,3104
11.514843,2960
11.515843,2544
11.516843,5713
11.517842,5857
11.518843,4529
11.519842,4385
11.520843,3200
11.521842,3504
11.522844,2624
11.523844,3408
11.524844,6001
11.525841,3840
11.526844,4529
11.527845,5297
11.528842,4657
11.529845,3808
11.530844,4721
11.531841,5217
11.532843,3376
11.533845,6337
11.534843,4737
11.535842,3232
11.536845,3872
11.537844,2976
11.538844,3104
11.539843,2784
11.540842,2768
11.541842,4193
11.542843,3856
11.543843,2544
11.544841,4737
11.545843,3744
11.546842,3024
11.547841,3280
11.548843,4048
11.549841,4401
11.550843,3264
11.551844,2720
11.552845,5665
11.553843,3008
11.554843,3136
11.555845,4369
11.556845,3200
11.557844,3856
11.558844,2656
11.559863,2752
11.560847,3552
11.561845,3968
11.562845,2704
11.563844,3424
11.564843,3040
11.565843,5569
11.566843,5441
11.567843,2976
11.568843,2336
11.569843,2816
11.570844,3088
11.571843,2752
11.572843,3072
11.573846,3520
11.574841,4401
11.575843,3296
11.576843,4497
11.577843,3200
11.578841,3232
11.579841,2608
11.580842,2832
11.581844,4993
11.582843,2736
11.583846,2480
11.584841,3632
11.585843,4737
11.586844,4177
11.587841,3344
11.588845,2720
11.589843,4064
11.590844,3712
11.591843,2976
11.592844,3088
11.593843,3040
11.594842,4753
11.595842,2912
11.596845,3472
11.597844,2640
11.598841,2768
11.599844,3168
11.600843,5857
11.601843,5377
11.602843,5153
11.603844,2992
11.604844,12274
11.605843,8626
11.606843,3840
11.607845,4673
11.608844,2704
11.609843,3744
11.610845,6833
11.611843,5905
11.612843,4177
11.613843,2960
11.614844,3840
11.615844,6529
11.616843,3088
11.617841,7633
11.618843,3008
11.619845,3712
11.620844,3024
11.621844,4353
11.622842,3232
11.623860,5953
11.624851,5361
11.625846,5761
11.626841,3312
11.627843,2912
11.628842,3504
11.629845,2832
11.630842,2608
11.631844,3216
11.632845,3376
11.633845,3008
11.634842,3856
11.635844,4753
11.636842,3328
11.637842,4032
11.638844,3216
11.639842,3600
11.640844,5313
11.641843,3216
11.642845,3632
11.643843,3808
11.644841,3264
11.645843,2768
11.646845,3728
11.647844,3856
11.648845,4497
11.649843,2992
11.650841,2784
11.651844,2704
11.652843,2784
11.653843,6161
11.654845,2528
11.655842,3328
11.656843,2752
11.657841,3008
11.658844,3632
11.659842,3104
11.660845,5569
11.661843,3024
11.662842,2688
11.663845,3600
11.664842,3744
11.665843,4481
11.666846,3712
11.667844,3888
11.668843,3008
11.669844,14675
11.670843,4177
11.671844,3072
11.886995,4385
11.887638,4000
11.888077,3088
11.888471,2736
11.888871,2992
11.889330,4177
11.889722,6145
11.890120,5025
11.890512,5057
11.890926,3632
11.891323,3248
11.891714,4609
11.892116,3840
11.892515,3424
11.892917,2992
11.893843,3968
11.894843,3984
11.895843,3616
11.896843,7233
11.897844,3120
11.898845,10114
11.899843,2976
11.900843,5057
11.901841,3264
11.902845,4161
11.903843,3968
11.904843,3264
11.905844,3344
11.906841,3296
11.907843,5969
11.908842,4737
11.909843,3744
11.910841,3360
11.911844,4353
11.912844,2848
11.913845,6161
11.914845,4785
11.915844,3264
11.916842,2976
11.917845,2784
11.918843,4064
11.919844,5633
11.920841,3824
11.921844,3152
11.922842,6625
11.923843,4705
11.924844,5857
11.925843,4321
11.926844,4193
11.927844,3664
11.928845,2976
11.929841,3488
11.930842,3936
11.931842,3744
11.932843,3008
11.933844,3072
11.934841,3216
11.935843,3376
11.936845,3056
11.937845,2656
11.938845,3840
11.939843,3856
11.940844,3696
11.941843,6161
11.942843,2976
11.943864,4497
11.944847,7025
11.945846,3952
11.946843,3264
11.947843,4417
11.948845,2752
11.949843,3504
11.950844,4145
11.951844,4177
11.952843,3152
11.953843,3776
11.954843,3744
11.955844,3152
11.956843,3472
11.957845,4032
11.958842,2768
11.959843,2720
11.960843,3504
11.961843,3136
11.962843,3216
11.963843,3472
11.964841,3904
11.965842,2752
11.966843,4097
11.967843,3024
11.968843,6193
11.969843,3216
11.970841,3728
11.971844,2880
11.972844,3168
11.973845,5809
11.974843,4977
11.975843,3776
11.976845,2880
11.977844,2864
11.978842,3168
11.979844,3296
11.980843,3984
11.981842,3616
11.982845,2992
11.983844,3104
11.984843,3120
11.985843,2800
11.986843,3904
11.987844,3536
11.988844,4465
11.989843,4193
11.990843,3152
11.991844,4625
11.992842,4032
11.993843,3664
11.994843,5217
11.995842,3280
11.996845,6609
11.997844,5345
11.998844,5313
11.999843,3232
12.000842,2656
12.001843,3680
12.002843,4353
12.003844,3136
12.004843,2960
12.005844,4016
12.006844,3936
12.007860,3584
12.008849,2576
12.009845,2960
12.010844,4353
12.011843,4625
12.012844,6161
12.013841,4849
12.014842,3472
12.015842,3056
12.016845,2704
12.017843,2912
12.018844,3072
12.019844,3680
12.020844,3232
12.021843,3760
12.022843,3408
12.023843,5297
12.024845,4993
12.025842,3376
12.026844,2864
12.027843,3088
12.028844,3104
12.029844,3104
12.030845,2944
12.031843,2976
12.032843,3712
12.033843,4545
12.034843,4945
12.035843,3776
12.036844,4016
12.037843,5633
12.038841,3408
12.039843,3552
12.040846,4833
12.041843,3024
12.042844,2720
12.043843,3088
12.044843,4032
12.045845,2848
12.046841,4064
12.047843,4273
12.048845,5089
12.049844,3680
12.050843,4257
12.051843,4561
12.052843,3280
12.053841,4273
12.054843,3872
12.055845,2848
12.056843,3312
12.057843,3136
12.058843,3280
12.059841,3840
12.060843,3824
12.061843,3344
12.062842,3040
12.063843,2944
12.064844,2864
12.065841,3744
12.066844,3760
12.067845,4641
12.068844,4048
12.069845,4177
12.070844,3296
12.071861,3552
12.072848,3504
12.073844,6321
12.074845,5841
12.075841,3840
12.076844,3104
12.077843,3120
12.238002,4609
12.238798,3152
12.239388,3120
12.239938,3104
12.240486,4097
12.241101,5457
12.241650,4657
12.242200,3328
12.242746,3360
12.243320,3600
12.243868,3952
12.244418,2992
12.244969,3424
12.245519,3648
12.246074,3648
12.246625,3072
12.247179,4048
12.247754,5249
12.248309,4193
12.248862,4048
12.249844,3392
12.250841,3808
12.251844,8930
12.252841,3552
12.253843,3328
12.254846,3104
12.255843,3664
12.256844,3280
12.257845,4801
12.258842,3472
12.259843,4129
12.260844,4433
12.261844,4353
12.262842,3264
12.263860,3328
12.264846,4193
12.265844,4097
12.266842,6273
12.267842,3264
12.268845,3296
12.269843,3680
12.270843,3248
12.271842,4016
12.272844,4673
12.273844,3104
12.274843,4353
12.275841,3744
12.276841,3456
12.277843,4289
12.278845,3568
12.279843,4193
12.280845,3536
12.281843,3968
12.282843,3472
12.283842,3408
12.284843,3488
12.285843,3152
12.286843,4129
12.287844,5041
12.288842,4080
12.289843,3248
12.290844,2816
12.291844,2992
12.292845,4000
12.293845,4641
12.294844,4209
12.295843,4289
12.296845,3648
12.297843,3568
12.298842,3760
12.299842,3968
12.300844,4321
12.301843,6369
12.302844,4657
12.303843,3328
12.304844,3328
12.305841,3712
12.306843,4064
12.307843,3168
12.308842,3712
12.309844,4609
12.310841,3712
12.311843,3328
12.312842,3168
12.313843,5393
12.314844,4016
12.315843,3552
12.316843,4000
12.317843,4080
12.318843,3232
12.319844,6225
12.320843,3424
12.321844,3744
12.322844,4561
12.323843,3168
12.324845,3024
12.325843,4097
12.326845,3360
12.327858,3424
12.328848,4865
12.329844,4161
12.330843,4929
12.331845,4321
12.332843,3744
12.333843,3152
12.334844,3248
12.335841,3248
12.336844,2832
12.337845,4193
12.338843,3568
12.339845,3968
12.340843,3760
12.341842,4289
12.342843,4369
12.343845,3136
12.344845,3376
12.345843,3984
12.346842,3888
12.347845,3680
12.348843,3936
12.349843,3328
12.350843,3232
12.351843,3472
12.352843,3232
12.353843,3584
12.354843,4369
12.355843,3648
12.356844,4113
12.357843,4737
12.358844,3264
12.359843,3264
12.360843,4225
12.361844,3616
12.362844,3760
12.363844,3328
12.364843,3536
12.365844,4113
12.366843,3664
12.367844,4449
12.368843,4048
12.369843,3456
12.370843,4129
12.371845,3360
12.372843,3184
12.373844,4000
12.374842,5409
12.375844,5681
12.376843,3792
12.377845,3168
12.378843,4193
12.379845,3920
12.380844,4048
12.381843,3632
12.382843,3712
12.383842,3712
12.384843,3072
12.385843,3968
12.386843,4801
12.387844,3504
12.388842,3520
12.389843,4353
12.390841,4161
12.391856,3104
12.392848,5457
12.393844,5841
12.394846,4497
12.395843,3552
12.396843,3456
12.397844,5025
12.398844,5793
12.399843,5713
12.400841,3760
12.401843,3616
12.402845,3664
12.403844,6833
12.404845,4080
12.405844,4177
12.406843,3648
12.407843,3280
12.408845,6017
12.409843,4257
12.410842,4064
12.411845,3280
12.412843,3216
12.413842,3376
12.414842,3632
12.415843,3680
12.416843,3344
12.417844,4961
12.418844,4273
12.419841,5713
12.420843,4113
12.421845,4241
12.422842,5329
12.423843,3456
12.424845,3520
12.425844,3120
12.426840,4545
12.427845,3312
12.428844,3008
12.541038,3600
12.541997,3776
12.542734,2416
12.543453,2928
12.544159,2736
12.544942,4545
12.545649,3904
12.546356,3040
12.547066,3648
12.547792,4193
12.548507,3632
12.549226,3424
12.549938,3136
12.550644,3456
12.551359,2928
12.552072,4481
12.552784,5441
12.553523,3504
12.554237,2912
12.554950,2816
12.555669,3568
12.556389,3376
12.557107,2704
12.557834,2960
12.558550,3488
12.559270,4401
12.559995,4289
12.560844,4769
12.561844,3920
12.562843,3504
12.563845,3200
12.564845,5121
12.565844,4000
12.566843,4353
12.567844,6033
12.568843,8802
12.569844,4353
12.570841,4641
12.571844,4369
12.572842,3344
12.573845,3296
12.574843,3472
12.575845,3536
12.576841,4032
12.577845,4641
12.578843,3648
12.579843,5697
12.580843,4032
12.581842,4433
12.582844,7569
12.583864,4561
12.584848,4465
12.585845,7777
12.586843,3344
12.587843,3392
12.588841,3536
12.589845,3552
12.590845,5537
12.591843,3456
12.592842,3712
12.593843,5297
12.594844,4881
12.595843,3152
12.596843,4032
12.597842,4289
12.598841,3616
12.599844,3712
12.600842,3424
12.601845,3984
12.602844,3312
12.603843,5761
12.604843,4577
12.605841,3328
12.606843,3424
12.607844,3072
12.608842,3712
12.609843,4064
12.610843,4449
12.611844,3520
12.612843,4097
12.613843,4945
12.614843,3760
12.615844,4016
12.616843,3104
12.617841,3376
12.618843,4529
12.619843,3392
12.620843,3360
12.621843,3216
12.622843,3792
12.623845,4257
12.624842,3472
12.625844,3504
12.626844,3808
12.627844,3248
12.628842,3040
12.629845,4369
12.630843,5921
12.631843,5185
12.632844,6289
12.633842,4929
12.634843,3504
12.635845,3840
12.636843,3616
12.637842,4032
12.638846,4032
12.639843,3232
12.640843,3568
12.641843,4433
12.642845,4113
12.643843,4993
12.644844,4064
12.645843,4305
12.646860,3808
12.647850,3488
12.648846,3376
12.649844,3216
12.650843,3712
12.651845,4705
12.652843,3456
12.653843,3776
12.654844,3152
12.655843,4577
12.656843,4673
12.657842,4769
12.658845,3488
12.659844,4016
12.660844,4577
12.661844,4273
12.662844,4193
12.663842,3200
12.664844,3584
12.665842,5393
12.666841,4833
12.667845,3088
12.668841,3680
12.669843,4080
12.670845,3136
12.671845,3264
12.672843,5329
12.673844,4849
12.674843,4177
12.675843,3584
12.676845,3664
12.677844,4129
12.678843,3504
12.679844,6273
12.680843,4369
12.681841,3280
12.682843,3616
12.683842,3024
12.684844,5393
12.685843,3792
12.686845,5121
12.687843,3344
12.688843,3856
12.689843,4833
12.690842,5393
12.691840,3920
12.692842,3248
12.693841,3392
12.694843,4401
12.695841,3744
12.696844,4016
12.697843,5665
12.698846,4145
12.709433,2704
12.709662,2656
12.709884,3456
12.710094,2976
12.710315,3104
12.710527,3424
12.710813,3344
12.711045,3552
12.711263,2864
12.711479,3152
12.711844,3904
12.712844,3520
12.713842,4705
12.714844,4257
12.715841,4064
12.716843,4337
12.717844,3168
12.718844,3984
12.719844,3360
12.720844,4849
12.721842,5345
12.722842,3440
12.723843,4945
12.724845,3232
12.725843,5169
12.726845,4193
12.727844,3376
12.728844,3520
12.729843,4305
12.730841,3472
12.731842,3728
12.732843,3792
12.733843,3744
12.734844,4753
12.896481,3856
12.897025,3792
12.897340,2496
12.897634,2736
12.897926,3232
12.898277,3232
12.898564,4032
12.898855,4801
12.899140,5521
12.899447,5633
12.899734,6177
12.900027,4353
12.900843,3776
12.901842,3584
12.902843,3296
12.903867,2832
12.904854,3072
12.905845,3728
12.906844,3984
12.907844,4064
12.908844,3328
12.909843,3920
12.910844,4769
12.911845,4609
12.912844,5585
12.913844,4177
12.914843,3600
12.915843,4625
12.916844,4097
12.917844,4353
12.918841,3488
12.919844,3680
12.920841,3136
12.921842,3280
12.922841,3456
12.923842,3616
12.924842,3408
12.925845,4737
12.926845,4401
12.927843,10450
12.928843,3936
12.929843,3584
12.930845,5217
12.931843,4273
12.932843,3520
12.933843,3424
12.934844,4241
12.935844,3904
12.936843,3408
12.937844,5089
12.938843,5473
12.939843,4705
12.940844,4000
12.941843,3472
12.942843,3424
12.943842,4273
12.944844,3408
12.945845,3136
12.946842,4561
12.947843,3888
12.948842,3680
12.949845,4513
12.950844,3296
12.951844,4529
12.952843,5009
12.953843,3664
12.954842,3264
12.955844,3696
12.956843,3936
12.957844,3888
12.958843,4705
12.959843,4881
12.960842,5185
12.961843,3888
12.962843,3760
12.963844,3344
12.964844,3520
12.965844,3008
12.966858,4961
12.967849,3328
12.968845,5345
12.969845,3968
12.970843,5329
12.971843,8210
12.972844,4497
12.973844,3456
12.974843,3808
12.975844,3168
12.976843,3376
12.977843,3600
12.978844,3808
12.979843,3424
12.980845,3584
12.981843,3632
12.982843,4289
12.983843,3376
12.984841,4593
12.985843,3904
12.986843,3440
12.987843,2992
12.988844,5249
12.989843,3856
12.990843,3408
12.991845,4016
12.992841,2896
12.993843,3616
12.994843,5409
12.995842,4881
12.996844,3696
12.997841,3376
12.998842,4048
12.999841,3296
13.000843,3488
13.001844,3840
13.002844,3536
13.003845,3376
13.004843,3648
13.005844,4048
13.006843,4113
13.007845,5121
13.008844,4032
13.009845,3792
13.010845,3680
13.011845,3536
13.012843,4385
13.013845,3664
13.014843,3680
13.015843,3728
13.016843,3152
13.017845,3376
13.018843,3696
13.019842,4337
13.020842,6577
13.021841,3472
13.022844,3664
13.023843,4305
13.024843,4080
13.025843,3360
13.026844,3408
13.027843,3152
13.028843,4817
13.029845,3392
13.030860,2624
13.031848,3856
13.032845,4481
13.033841,4545
13.034843,4449
13.035843,3616
13.036844,3968
13.037844,4433
13.038844,4529
13.039842,3664
13.040842,3248
13.041844,3344
13.042843,3664
13.043844,4145
13.044844,4417
13.045843,3328
13.046841,2944
13.047843,3280
13.048841,3232
13.049843,3248
13.050845,3760
13.051841,4785
13.052843,6785
13.053843,4241
13.054843,3520
13.055842,3936
13.056844,3280
13.057842,3408
13.058844,3472
13.059842,3664
13.060844,4545
13.061842,3600
13.062845,3600
13.063842,5441
13.064843,6593
13.065842,3840
13.066843,3872
13.067841,2720
13.068842,3728
13.069843,2912
13.070845,4689
13.071844,3296
13.072843,3680
13.073845,4032
13.074843,3616
13.075845,4225
13.076843,3872
13.077842,4369
13.078843,3744
13.079841,2704
13.080842,4097
13.081844,5201
13.082841,2352
13.083844,3760
13.084843,4129
13.085842,3920
13.086844,3296
13.087841,2320
13.256475,2976
13.257183,5409
13.257655,5889
13.258111,4673
13.258553,3472
13.259063,2768
13.259508,3968
13.259950,4193
13.260390,3520
13.260850,4337
13.261297,3584
13.261741,1920
13.262186,2832
13.262629,2896
13.263075,3216
13.263844,3936
13.264844,3072
13.265843,3248
13.266843,4705
13.267843,3376
13.268844,3296
13.269845,3696
13.270843,3504
13.271843,3136
13.272842,2656
13.273845,4641
13.274843,3600
13.275843,2624
13.276843,2384
13.277845,4321
13.278841,3728
13.279843,3360
13.280842,2992
13.281843,3584
13.282842,2432
13.283843,2832
13.284843,3600
13.285843,4881
13.286842,4609
13.287870,2816
13.288849,5313
13.289844,3584
13.290844,2992
13.291843,2576
13.292843,3456
13.293843,4289
13.294843,3792
13.295842,2224
13.296843,3648
13.297843,4865
13.298843,2752
13.299843,2896
13.300843,4561
13.301843,3648
13.302843,3104
13.303844,4401
13.304843,3840
13.305844,3712
13.306843,3824
13.307841,3104
13.308843,3360
13.309841,3472
13.310844,2944
13.311842,2336
13.312843,2784
13.313842,2960
13.314842,3296
13.315845,2864
13.316843,3232
13.317843,5457
13.318844,3632
13.319843,4257
13.320844,3632
13.321843,2400
13.322844,2880
13.323844,2736
13.324842,2496
13.325845,4048
13.326843,3328
13.327843,3712
13.328844,5089
13.329843,4113
13.330843,2528
13.331842,2384
13.332841,2768
13.333844,5809
13.334844,4737
13.335843,3168
13.336843,2816
13.337842,3280
13.338842,3088
13.339842,3792
13.340842,3552
13.341845,3968
13.342845,4193
13.343842,2368
13.344843,2608
13.345843,2448
13.346843,3680
13.347845,3264
13.348843,3568
13.349843,4016
13.350844,3232
13.351856,3392
13.352846,3632
13.353844,4145
13.354841,3648
13.355843,3696
13.356842,3072
13.357845,3264
13.358843,3248
13.359844,2816
13.360844,3664
13.361845,3424
13.362842,2976
13.363843,3104
13.364843,3472
13.365842,4241
13.366843,3152
13.367845,3792
13.368842,3456
13.369843,2944
13.370846,3488
13.371843,3008
13.372845,2960
13.373844,2576
13.374842,2896
13.375842,4145
13.376843,3968
13.377844,3616
13.378843,4161
13.379841,2688
13.380843,2592
13.381842,3904
13.382844,3104
13.383844,2832
13.384841,2912
13.385844,4721
13.386843,3072
13.387841,2912
13.388843,4673
13.389842,2624
13.390845,3600
13.391842,5633
13.392842,5121
13.393843,3136
13.394843,2496
13.395844,3584
13.396843,2336
13.397842,3232
13.398843,2352
13.399843,2608
13.400843,2768
13.401843,6657
13.402843,3936
13.403842,2352
13.404843,3488
13.405843,4433
13.406843,4833
13.407843,3152
13.408843,3456
13.409845,6337
13.410842,2848
13.411842,3808
13.412844,3040
13.413843,3664
13.414859,3040
13.415850,7201
13.416848,4945
13.417846,4000
13.418845,6641
13.419841,3088
13.420841,2720
13.421842,2864
13.422841,2336
13.423843,2976
13.424845,4016
13.425843,3104
13.426842,2608
13.427843,2560
13.428843,2512
13.429842,4513
13.430842,2256
13.431844,2976
13.432843,5073
13.433843,4113
13.434843,4609
13.435845,2592
13.436843,2784
13.437843,2800
13.438843,3808
13.439842,2480
13.440843,3360
13.441843,4449
13.442843,6033
13.443844,3360
13.444845,2608
13.445842,3376
13.446843,5345
13.447842,3536
13.598504,3216
13.599376,3488
13.600012,3536
13.600611,3392
13.601205,3472
13.601866,2736
13.602463,2768
13.603059,3376
13.603649,3536
13.604259,4113
13.604855,4625
13.605451,3936
13.606051,3776
13.606646,3040
13.607404,3488
13.608028,3136
13.608632,2816
13.609259,3344
13.609865,6705
13.610465,5089
13.611072,4000
13.611843,3136
13.612845,3376
13.613844,2608
13.614844,2576
13.615843,2464
13.616844,2432
13.617846,4593
13.618843,2832
13.619844,3216
13.620842,3744
13.621845,5825
13.622842,3264
13.623844,2528
13.624842,3392
13.625843,3216
13.626842,4273
13.627844,3552
13.628844,3216
13.629843,2912
13.630842,2560
13.631845,3648
13.632843,4241
13.633842,2624
13.634845,2912
13.635842,2736
13.636843,2336
13.637843,3568
13.638845,2992
13.639844,3792
13.640843,3552
13.641844,3520
13.642843,4929
13.643843,2656
13.644842,2800
13.645842,3888
13.646841,3856
13.647843,3152
13.648843,2656
13.649843,2432
13.650842,6177
13.651842,11874
13.652843,3728
13.653843,4865
13.654845,4241
13.655845,2496
13.656842,2960
13.657843,2992
13.658843,3040
13.659843,3184
13.660842,4193
13.661843,4145
13.662843,3296
13.663844,2368
13.664845,3200
13.665843,5441
13.666843,4753
13.667843,2912
13.668841,5473
13.669844,3456
13.670843,3280
13.671856,3504
13.672850,3520
13.673844,2720
13.674845,2048
13.675843,3728
13.676842,5137
13.677844,3632
13.678842,4032
13.679845,2976
13.680843,4497
13.681843,3024
13.682844,2528
13.683843,2560
13.684843,2608
13.685842,3536
13.686843,6273
13.687843,4913
13.688844,4593
13.689843,3344
13.690844,2848
13.691843,3136
13.692841,3248
13.693844,2992
13.694843,2496
13.695843,3472
13.696843,3328
13.697843,2736
13.698843,4865
13.699843,5713
13.700844,4113
13.701843,3584
13.702842,2464
13.703843,2976
13.704841,2976
13.705843,3536
13.706843,3248
13.707842,2992
13.708842,2880
13.709845,3504
13.710842,3328
13.711843,2784
13.712846,2896
13.713845,3216
13.714845,3088
13.715842,2560
13.716845,2576
13.717843,4993
13.718843,3648
13.719843,4000
13.720842,3536
13.721843,2896
13.722844,2592
13.723844,3648
13.724843,3232
13.725844,4225
13.726845,4097
13.727842,4177
13.728844,3760
13.729845,2976
13.730842,3776
13.731844,5889
13.732843,3136
13.733843,4225
13.734843,8226
13.735858,3296
13.736849,4145
13.737844,3040
13.738846,2704
13.739842,2880
13.740843,5361
13.741845,6481
13.742844,4273
13.743843,2704
13.744843,3024
13.745843,4305
13.746843,2784
13.747844,2720
13.748845,3392
13.749843,3744
13.750843,4369
13.751842,3552
13.752843,2752
13.753843,2864
13.754843,2608
13.755843,2784
13.756843,4113
13.757843,5441
13.758844,3968
13.759845,3088
13.760841,2816
13.761843,2816
13.762842,3920
13.763844,4161
13.764844,2944
13.765844,3936
13.766843,3408
13.767844,3760
13.768842,3072
13.769844,3536
13.770844,3744
13.771842,2688
13.772842,3648
13.773845,2688
13.774844,2736
13.775843,3264
13.776844,2432
13.777844,7457
13.778843,3392
13.779844,2752
13.780842,3312
13.781843,3904
13.782841,3024
13.783843,3136
13.784841,4321
13.785844,3056
13.786844,4145
13.787846,4753
13.788844,3296
13.789844,3808
13.904593,3776
13.905632,4241
13.906428,3600
13.907201,2768
13.907959,3216
13.908786,3536
13.909547,2736
13.910301,2640
13.911059,4097
13.911832,5665
13.912587,4321
13.913351,4048
13.914111,3584
13.914872,3552
13.915628,3600
13.916393,2640
13.917158,3840
13.917945,3168
13.918702,3536
13.919469,2576
13.920234,2736
13.920998,2752
13.921764,2752
13.922530,3424
13.923302,4016
13.924072,3008
13.924842,3168
13.925607,3952
13.926372,3632
13.927145,3200
13.928075,2368
13.928857,3408
13.929629,3472
13.930438,4801
13.931212,3600
13.931984,3376
13.932843,2704
13.933845,4865
13.934843,4369
13.935843,3600
13.936842,3360
13.937843,3168
13.938845,3136
13.939843,3120
13.940844,3504
13.941843,3616
13.942844,3712
13.943845,2832
13.944844,3376
13.945844,3248
13.946844,2848
13.947841,3088
13.948842,3632
13.949843,2816
13.950843,3536
13.951843,5553
13.952843,4305
13.953844,2592
13.954842,3536
13.955845,3440
13.956844,2768
13.957843,4145
13.958843,3536
13.959844,2784
13.960843,4257
13.971109,3168
13.971338,2736
13.971553,3216
13.971765,2624
13.971979,3472
13.972192,2848
13.972405,3488
13.972621,2624
13.972845,3104
13.973062,2976
13.973843,3872
13.974843,2624
13.975844,3680
13.976844,3536
13.977844,2896
13.978843,4016
13.979845,2992
13.980842,2752
13.981846,3088
13.982843,5713
13.983841,6033
13.984841,4545
13.985843,3600
13.986842,3680
13.987843,3248
13.988844,3984
13.989843,3792
13.990842,3024
13.991863,5761
13.992852,3584
13.993844,5841
13.994846,2704
13.995841,2944
13.996841,2736
13.997845,3808
13.998843,3296
13.999844,2720
14.000841,3616
14.001843,4000
14.002844,5281
14.003844,4945
14.004842,2848
14.005843,3712
14.006841,3808
14.007844,2752
14.008842,3040
14.009843,2592
14.010843,2512
14.011844,4449
14.012841,3632
14.013842,2848
