Tempo(s),EMG_Value
0.005023,5649
0.006542,4497
0.006921,4689
0.007874,4913
0.008867,5617
0.009865,5057
0.010863,5073
0.011864,6961
0.012862,4913
0.013864,8578
0.014864,4881
0.015863,5441
0.016865,5265
0.017864,7137
0.018865,4865
0.019866,4785
0.020865,4929
0.021862,5105
0.022866,4609
0.023864,6657
0.024864,4801
0.025864,5697
0.026866,4785
0.027864,5425
0.028861,5761
0.029864,5249
0.030865,4561
0.031862,5393
0.032865,5345
0.033865,5441
0.034865,5473
0.035864,5217
0.036864,4769
0.037866,4913
0.038863,4801
0.039864,5121
0.040866,5793
0.041863,4817
0.042864,4881
0.043885,6241
0.044870,4545
0.045866,4401
0.046864,5057
0.047865,5025
0.048865,4657
0.049865,5729
0.050862,6305
0.051866,5697
0.052866,4673
0.053864,5073
0.054864,5121
0.055863,5921
0.056863,5665
0.057864,4897
0.058862,5025
0.059866,4833
0.060863,5825
0.061864,7393
0.062865,5617
0.063866,4593
0.064864,5313
0.065864,5745
0.066864,4833
0.067866,6929
0.068864,6913
0.069866,5473
0.070866,4769
0.071864,5313
0.072863,6705
0.073864,5009
0.074864,4753
0.075864,6113
0.076866,5393
0.077864,4881
0.078864,4689
0.079866,6033
0.080864,4945
0.081862,5025
0.082863,4913
0.083864,4849
0.084865,5345
0.085864,7617
0.086864,5665
0.087864,4913
0.088864,4865
0.089865,5649
0.090865,7137
0.091866,6145
0.092864,5153
0.093863,5073
0.094865,4769
0.095866,5969
0.096865,4913
0.097866,7041
0.098862,7073
0.099864,4753
0.100865,4913
0.101864,5313
0.102864,6817
0.103866,4593
0.104866,4913
0.105866,4545
0.106863,5889
0.107882,6737
0.108873,4737
0.109867,4353
0.110864,4945
0.111863,6097
0.112864,5921
0.113862,5057
0.114863,5185
0.115865,4593
0.116863,4913
0.117864,5633
0.118862,4705
0.119865,4945
0.120863,6529
0.121862,5601
0.122866,4881
0.123862,5185
0.124864,4993
0.125866,6273
0.126864,4945
0.127864,4657
0.128865,5153
0.129864,7729
0.130866,6273
0.131864,5937
0.132864,5249
0.133866,5729
0.134863,5761
0.135864,4945
0.136864,4737
0.137862,6113
0.138865,5857
0.139864,5121
0.140864,5169
0.141866,4993
0.142864,6113
0.143865,4705
0.144865,5761
0.145865,6097
0.146863,5169
0.147865,5137
0.148864,4961
0.149864,6273
0.150864,5425
0.151865,6401
0.152864,5137
0.153864,5041
0.154866,6497
0.155865,5825
0.156866,4945
0.157866,4705
0.158865,4609
0.159863,5041
0.160863,5057
0.161863,5153
0.162864,5297
0.163864,4913
0.164865,5089
0.165866,4705
0.166862,4881
0.167864,6161
0.168863,5169
0.169864,5025
0.170864,4737
0.171883,4801
0.172875,4449
0.173867,4945
0.174866,4737
0.175866,7777
0.176865,5425
0.177863,6865
0.178865,4801
0.179865,5025
0.180864,6481
0.181864,5633
0.182864,5665
0.183866,5041
0.184865,4913
0.185864,4769
0.186865,4785
0.187863,5377
0.188864,5105
0.189864,4769
0.190867,4801
0.191864,5185
0.192865,6161
0.193866,4961
0.194865,4833
0.195865,4993
0.196863,5697
0.197864,6577
0.198864,5793
0.199864,4817
0.200863,5041
0.201863,4961
0.202865,5409
0.203865,4577
0.332276,7617
0.332918,5729
0.333327,4257
0.333703,4705
0.334086,7521
0.334521,6993
0.334895,6401
0.335268,5713
0.335646,5857
0.336038,5777
0.336413,5649
0.336785,5185
0.337166,5633
0.337864,4705
0.338863,5761
0.339863,6273
0.340862,5825
0.341863,5665
0.342862,4961
0.343865,4945
0.344866,5025
0.345865,5121
0.346862,6833
0.347863,5137
0.348866,4561
0.349863,5457
0.350866,6065
0.351865,4929
0.352862,5425
0.353866,4977
0.354864,5041
0.355864,5857
0.356865,7041
0.357865,5537
0.358866,5617
0.359865,5265
0.360864,5793
0.361862,4993
0.362865,5089
0.363881,4449
0.364866,4785
0.365864,5809
0.366864,5649
0.367864,5057
0.368866,5025
0.369863,4369
0.370862,5073
0.371864,4705
0.372864,6097
0.373865,5169
0.374866,5361
0.375864,5073
0.376866,4865
0.377866,6689
0.378864,5281
0.379865,4785
0.380862,5329
0.381865,4977
0.382864,6401
0.383865,4913
0.384864,5121
0.385863,3936
0.386864,5201
0.387864,5121
0.388863,5633
0.389864,5329
0.390864,4913
0.391866,5201
0.392863,8402
0.393865,6193
0.394863,4817
0.395864,4929
0.396864,5441
0.397865,5377
0.398864,5009
0.399864,4849
0.400863,7889
0.401864,6785
0.402863,5777
0.403865,6305
0.404865,5297
0.405864,4849
0.406865,5729
0.407865,5121
0.408864,5105
0.409863,6449
0.410866,5553
0.411865,4929
0.412865,5185
0.413864,5057
0.414867,5889
0.415866,5665
0.416865,5105
0.417864,5281
0.418866,5297
0.419864,5009
0.420864,4945
0.421863,5073
0.422866,4865
0.423864,5297
0.424863,5073
0.425864,5777
0.426866,4929
0.427881,4321
0.428873,4129
0.429866,4673
0.430863,6369
0.431863,6177
0.432863,5217
0.433864,4929
0.434865,5185
0.435865,5041
0.436864,5329
0.437864,5649
0.438862,6737
0.439864,5809
0.440865,6817
0.441864,6545
0.442864,5009
0.443864,4865
0.444865,5953
0.445864,5921
0.446864,5393
0.447864,5233
0.448864,5201
0.449864,5345
0.450863,5841
0.451864,5889
0.452864,5313
0.453863,5457
0.454864,4769
0.455866,5297
0.456865,4641
0.457864,5041
0.458864,5009
0.459864,6433
0.460864,6145
0.461865,5137
0.462864,5985
0.463864,5377
0.464862,7217
0.465864,4625
0.466866,5665
0.467867,6177
0.468866,4945
0.469866,5073
0.470864,4849
0.471863,5953
0.472864,5633
0.473865,5073
0.474864,5105
0.475863,5089
0.476864,5153
0.477864,4753
0.478866,5361
0.479864,5057
0.480864,5649
0.481864,4032
0.482864,5025
0.483865,6097
0.484865,4753
0.485866,4401
0.486864,5057
0.487864,6161
0.488862,5601
0.489866,6273
0.490865,6161
0.491880,5473
0.492867,6977
0.493864,5537
0.494864,5633
0.495866,5217
0.496864,4993
0.497864,5249
0.498866,5937
0.499864,5473
0.500864,4993
0.501866,5425
0.502865,4705
0.503865,6545
0.504864,6705
0.505864,4897
0.506863,5089
0.507865,4945
0.508865,6193
0.509864,7057
0.510864,5985
0.511864,5505
0.512864,5009
0.513865,5409
0.514862,5073
0.515863,5265
0.516862,7697
0.517864,5505
0.518862,5633
0.519863,5297
0.520866,5281
0.521863,6721
0.522865,5169
0.523865,5201
0.683912,4897
0.684680,4433
0.685241,4897
0.685770,5393
0.686301,5297
0.686898,4529
0.687420,4769
0.687950,4385
0.688477,5089
0.689024,6161
0.689547,6609
0.690080,3600
0.690609,3984
0.691142,5969
0.691668,6081
0.692205,4865
0.692735,4225
0.693291,5185
0.693862,4769
0.694864,6849
0.695866,5297
0.696864,5377
0.697865,6609
0.698865,4929
0.699865,5265
0.700864,7137
0.701864,4945
0.702864,5793
0.703865,6273
0.704865,4897
0.705865,4657
0.706864,6049
0.707866,5633
0.708863,4833
0.709867,4833
0.710864,6609
0.711865,5473
0.712866,6529
0.713864,6401
0.714863,8049
0.715864,5473
0.716865,5217
0.717865,5457
0.718867,6513
0.719866,6417
0.720863,4769
0.721865,4945
0.722864,4929
0.723863,5889
0.724864,5505
0.725865,5601
0.726866,4993
0.727865,5121
0.728864,6465
0.729865,4993
0.730866,5569
0.731863,5857
0.732864,5793
0.733864,5489
0.734864,5057
0.735864,4737
0.736864,5601
0.737866,5089
0.738864,5201
0.739865,5665
0.740865,5329
0.741864,4993
0.742866,5441
0.743864,5073
0.744864,6753
0.745863,5089
0.746864,6945
0.747878,4673
0.748867,5169
0.749865,4961
0.750866,5841
0.751866,7217
0.752864,6529
0.753864,4080
0.754865,4993
0.755864,4961
0.756866,6289
0.757865,5249
0.758863,5553
0.759866,6481
0.760862,5313
0.761864,6097
0.762864,5137
0.763864,4929
0.764862,6065
0.765866,5393
0.766864,4785
0.767863,6065
0.768864,6321
0.769866,4577
0.770865,5185
0.771864,5329
0.772865,6545
0.773863,6193
0.774864,4753
0.775864,5441
0.776864,5889
0.777866,6049
0.778864,5969
0.779865,5761
0.780864,4785
0.781863,4961
0.782864,4945
0.783865,6097
0.784865,7201
0.785863,6561
0.786864,5921
0.787865,5185
0.788863,4833
0.789866,4817
0.790862,6673
0.791864,5169
0.792863,5713
0.793866,5217
0.794864,6193
0.795865,6193
0.796862,4225
0.797866,5505
0.798864,6033
0.799865,6049
0.800863,4673
0.801866,4032
0.802864,4865
0.803864,7121
0.804866,5841
0.805864,5809
0.806863,4929
0.807864,5361
0.808863,4577
0.809865,5521
0.810880,5361
0.811872,5169
0.812866,5665
0.813864,7041
0.814866,5393
0.815865,4785
0.816864,4545
0.817864,5025
0.818865,5249
0.819863,4577
0.820866,6881
0.821864,5633
0.822864,5329
0.823864,6417
0.824862,4897
0.825864,5329
0.826866,5585
0.827864,5409
0.828862,6401
0.829864,6241
0.830864,4929
0.831864,4913
0.832864,5249
0.833866,7969
0.834864,5217
0.835865,4961
0.836864,6145
0.837865,6353
0.838864,5201
0.839863,5057
0.840862,4305
0.841862,4193
0.842863,5601
0.843864,5313
0.844864,4833
0.845865,6785
0.846865,5713
0.847863,4929
0.848864,4753
0.849864,5649
0.850864,6497
0.851862,4401
0.852865,5297
0.853863,4977
0.854864,5137
0.855865,5041
0.856865,5969
0.857864,6945
0.858866,5713
0.859866,6033
0.860862,6417
0.861862,4609
0.862864,4705
0.863864,6529
0.864864,5281
0.865864,4929
0.866863,6161
0.867864,7441
0.868862,4481
0.869866,5297
0.870864,5057
0.871866,5025
0.872864,5617
0.873863,5313
0.874876,4417
1.025065,4833
1.025998,4048
1.026707,4849
1.027404,6017
1.028084,6257
1.028831,6033
1.029507,4993
1.030189,4481
1.030871,5009
1.031571,5313
1.032256,4000
1.032941,6529
1.033618,5841
1.034301,4577
1.034988,4113
1.035672,6113
1.036359,5153
1.037068,2784
1.037747,5041
1.038439,6849
1.039128,5777
1.039811,4673
1.040504,3968
1.041195,4305
1.041887,4193
1.042864,5729
1.043864,3984
1.044864,4129
1.045865,6785
1.046863,6465
1.047863,4113
1.048866,4657
1.049863,5169
1.050864,5729
1.051865,6577
1.052865,4785
1.053865,4177
1.054865,4993
1.055863,6721
1.056864,5729
1.057865,4289
1.058864,5905
1.059864,4080
1.060863,6241
1.061865,5857
1.062866,7889
1.063865,5217
1.064865,4497
1.065862,6817
1.066865,5313
1.067881,4257
1.068866,5073
1.069865,4321
1.070862,5745
1.071865,4769
1.072864,5265
1.073866,4305
1.074864,4193
1.075864,5057
1.076864,4369
1.077863,3984
1.078862,5697
1.079864,4849
1.080864,4161
1.081863,5585
1.082864,4753
1.083864,4032
1.084864,5041
1.085864,4801
1.086864,3904
1.087863,5793
1.088864,5745
1.089865,4529
1.090865,5073
1.091865,4577
1.092865,4305
1.093864,4385
1.094866,7345
1.095864,5169
1.096861,4449
1.097866,4225
1.098863,5137
1.099866,5249
1.100863,4433
1.101862,3920
1.102865,4129
1.103864,4481
1.104863,4032
1.105865,3968
1.106864,8177
1.107866,5425
1.108864,6177
1.109862,5665
1.110862,4353
1.111866,4241
1.112864,5137
1.113865,4897
1.114864,5457
1.115864,4465
1.116864,10274
1.117864,6785
1.118863,4225
1.119864,4721
1.120867,5425
1.121865,4177
1.122864,4305
1.123866,5377
1.124864,6577
1.125866,5601
1.126863,4801
1.127864,4048
1.128863,4529
1.129866,5345
1.130862,5393
1.131879,5537
1.132868,5185
1.133864,3904
1.134864,3664
1.135866,7057
1.136862,5153
1.137865,3936
1.138863,5825
1.139866,4625
1.140864,4577
1.141864,4353
1.142864,4993
1.143863,4817
1.144864,4064
1.145866,4529
1.146864,4305
1.147863,5937
1.148863,4257
1.149865,4048
1.150864,4433
1.151865,4529
1.152865,6017
1.153863,4241
1.154864,4753
1.155864,7873
1.156864,3872
1.157865,4817
1.158862,6561
1.159865,5217
1.160865,4657
1.161863,4305
1.162865,4113
1.163866,5313
1.164863,4673
1.165865,4129
1.166865,4529
1.167862,4545
1.168864,4097
1.169863,4225
1.170864,3744
1.171866,5985
1.172864,3744
1.173863,4753
1.174866,5137
1.175863,3872
1.176867,6209
1.177864,6401
1.178864,3920
1.179864,4609
1.180864,3824
1.181864,6289
1.182866,4577
1.183863,5073
1.184866,4177
1.185864,7105
1.186862,6449
1.187864,5169
1.188864,4305
1.189864,5185
1.190865,4225
1.191862,4497
1.192864,4032
1.193864,3744
1.194864,5585
1.195882,5713
1.196870,5265
1.197864,4721
1.198865,4417
1.199866,4529
1.200863,3968
1.201866,3936
1.202864,6705
1.203865,5457
1.204866,4561
1.205862,5073
1.206866,5649
1.207865,3856
1.208863,5009
1.209865,3904
1.210866,5889
1.211864,4865
1.212863,3856
1.213866,3936
1.214865,4417
1.215864,5265
1.216864,5681
1.383453,5057
1.383961,5041
1.384226,5249
1.384478,5073
1.384718,4385
1.384984,4241
1.385224,5185
1.385462,4369
1.385700,5393
1.385966,5937
1.386206,6593
1.386889,5345
1.387871,4929
1.388867,3904
1.389863,5873
1.390865,5233
1.391862,4609
1.392864,4497
1.393864,3984
1.394863,4785
1.395866,4048
1.396864,4577
1.397863,5825
1.398864,4561
1.399864,6561
1.400865,4881
1.401864,5329
1.402863,4257
1.403864,4913
1.404864,4064
1.405863,4161
1.406865,6097
1.407865,5025
1.408866,4145
1.409863,5297
1.410864,5713
1.411862,4449
1.412866,4193
1.413864,4129
1.414864,5249
1.415865,5169
1.416865,4305
1.417862,4833
1.418865,6273
1.419862,4048
1.420865,4064
1.421863,5569
1.422865,5329
1.423862,4321
1.424864,4769
1.425865,6753
1.426865,5937
1.427864,5249
1.428865,5569
1.429866,4353
1.430864,4161
1.431866,4369
1.432864,4016
1.433863,4064
1.434866,4753
1.435862,4097
1.436862,4257
1.437864,6209
1.438865,5153
1.439866,6753
1.440864,4769
1.441864,4449
1.442864,4177
1.443865,4369
1.444863,5809
1.445863,5281
1.446864,6177
1.447867,5377
1.448866,3840
1.449864,5217
1.450880,4833
1.451868,4225
1.452866,3776
1.453867,3888
1.454864,5057
1.455866,5169
1.456864,4961
1.457864,4449
1.458864,6273
1.459864,4369
1.460862,4593
1.461866,4849
1.462865,4705
1.463863,4657
1.464864,4497
1.465864,4289
1.466864,4497
1.467863,4385
1.468865,5521
1.469863,4833
1.470865,4497
1.471863,4353
1.472863,4321
1.473865,4241
1.474863,4113
1.475863,5169
1.476863,5473
1.477866,4833
1.478863,5025
1.479863,4129
1.480864,4177
1.481866,7105
1.482866,4353
1.483863,5425
1.484863,4481
1.485865,4593
1.486864,4305
1.487866,3888
1.488866,3888
1.489865,5473
1.490865,4064
1.491865,4449
1.492862,5953
1.493864,4401
1.494866,5249
1.495866,4401
1.496866,5537
1.497863,5457
1.498864,4080
1.499865,4129
1.500862,4945
1.501866,5553
1.502864,5713
1.503865,5585
1.504865,4145
1.505864,4529
1.506864,4529
1.507866,4369
1.508864,4241
1.509864,4529
1.510864,3808
1.511864,7201
1.512865,4881
1.513865,11586
1.514881,6785
1.515871,5249
1.516867,4241
1.517866,6145
1.518864,4241
1.519862,4945
1.520864,5633
1.521864,4225
1.522864,3792
1.523866,5057
1.524864,5121
1.525867,4737
1.526862,4289
1.527866,3648
1.528866,6113
1.529864,4737
1.530865,4080
1.531865,4513
1.532865,5633
1.533865,5153
1.534866,4513
1.535863,5025
1.536864,4513
1.537864,4385
1.538864,4369
1.539864,5169
1.540865,4593
1.541866,3984
1.542865,5857
1.543864,5777
1.544863,4881
1.545865,4145
1.546862,4225
1.547865,4064
1.548865,6401
1.549865,6177
1.550866,4673
1.551863,4032
1.552866,3888
1.553864,6065
1.554862,5153
1.555863,5681
1.556867,4545
1.557863,4241
1.558865,3968
1.559865,3632
1.560862,4881
1.561864,4737
1.562866,4577
1.563863,4433
1.564864,5249
1.565865,4417
1.566862,4545
1.567865,4032
1.568863,4177
1.569864,6177
1.570864,4545
1.571864,4369
1.572864,4257
1.573865,6561
1.574866,5153
1.730008,4193
1.730642,4945
1.731067,5153
1.731471,6497
1.731866,6337
1.732323,5121
1.732714,4145
1.733109,4385
1.733503,5057
1.733913,4433
1.734305,4689
1.734694,4817
1.735096,6529
1.735489,5793
1.735890,4673
1.736864,4064
1.737864,5297
1.738865,7761
1.739864,6849
1.740864,4625
1.741865,4145
1.742864,4705
1.743864,3984
1.744863,4785
1.745866,5057
1.746864,4273
1.747865,4064
1.748863,4513
1.749866,4833
1.750866,5473
1.751867,6353
1.752864,8882
1.753864,5217
1.754863,4753
1.755865,4257
1.756864,4945
1.757864,4161
1.758863,5409
1.759864,4881
1.760862,5553
1.761865,4577
1.762863,4401
1.763863,4993
1.764863,4513
1.765864,4609
1.766864,4625
1.767864,4561
1.768864,5137
1.769863,4705
1.770884,4609
1.771868,3856
1.772865,3856
1.773864,4000
1.774864,6049
1.775862,7105
1.776865,4673
1.777865,4481
1.778862,4465
1.779865,4561
1.780862,4913
1.781864,5921
1.782865,4833
1.783864,4257
1.784864,4353
1.785864,4016
1.786865,7889
1.787864,6209
1.788863,5089
1.789863,4417
1.790864,4305
1.791861,5329
1.792864,5793
1.793864,4673
1.794864,5137
1.795865,4753
1.796865,4064
1.797866,5233
1.798865,5121
1.799865,5745
1.800863,5409
1.801864,4129
1.802865,4737
1.803866,4689
1.804864,4369
1.805864,4225
1.806864,4449
1.807863,4593
1.808864,4080
1.809864,4993
1.810863,4417
1.811865,4497
1.812863,5857
1.813865,4145
1.814864,6209
1.815862,5409
1.816864,4145
1.817866,6177
1.818864,4769
1.819865,5505
1.820864,4529
1.821865,4161
1.822864,5185
1.823865,4817
1.824864,4193
1.825866,4305
1.826865,4385
1.827866,4641
1.828866,5249
1.829864,5393
1.830864,4449
1.831862,4321
1.832865,5409
1.833863,5041
1.834884,4545
1.835871,5201
1.836865,5425
1.837862,4609
1.838863,4433
1.839863,4625
1.840862,4177
1.841863,6017
1.842865,4689
1.843864,4145
1.844864,5809
1.845865,4961
1.846863,4129
1.847864,5761
1.848864,4016
1.849863,4225
1.850863,4545
1.851864,5265
1.852864,5313
1.853864,4305
1.854864,4545
1.855866,4369
1.856864,5361
1.857863,5009
1.858865,5009
1.859862,4417
1.860864,5697
1.861864,5217
1.862865,4113
1.863863,5521
1.864864,5105
1.865864,4289
1.866864,4385
1.867865,4625
1.868864,4945
1.869864,4625
1.870862,4577
1.871866,4305
1.872863,4080
1.873865,4289
1.874863,5873
1.875863,5665
1.876863,4097
1.877863,4913
1.878863,4801
1.879863,4273
1.880862,4513
1.881866,4769
1.882864,5345
1.883864,5569
1.884864,5089
1.885864,4609
1.886866,4513
1.887866,5345
1.888866,5441
1.889865,4593
1.890864,4321
1.891862,6113
1.892864,4913
1.893864,4113
1.894863,4000
1.895864,5569
1.896865,4032
1.897863,4705
1.898881,5985
1.899871,4769
1.900864,5761
1.901865,4369
1.902866,4337
1.903863,4385
1.904864,4273
1.905865,4977
1.906864,4401
1.907865,5585
1.908866,5777
1.909862,5073
1.910864,6577
1.911865,5921
1.912865,4689
1.913864,4705
1.914865,5025
1.915866,5361
1.916862,5713
1.917864,5473
1.918863,4561
1.919865,4145
1.920863,5057
2.069057,4833
2.069859,5537
2.070433,5361
2.070984,5153
2.071526,5153
2.072136,4481
2.072676,5089
2.073221,4032
2.073769,4289
2.074336,6241
2.074890,6321
2.075434,5185
2.075983,5553
2.076528,5601
2.077079,4273
2.077624,3792
2.078182,4705
2.078866,4257
2.079864,4193
2.080863,4625
2.081865,5665
2.082864,6977
2.083865,4401
2.084864,4689
2.085865,4129
2.086862,5201
2.087864,4273
2.088865,5553
2.089866,5633
2.090885,5713
2.091870,4545
2.092866,4401
2.093866,5457
2.094864,4753
2.095864,4193
2.096862,4545
2.097863,4561
2.098864,3936
2.099862,5457
2.100866,6481
2.101864,4833
2.102864,4321
2.103865,4113
2.104866,4817
2.105864,4321
2.106862,5137
2.107866,4321
2.108864,4449
2.109862,4881
2.110863,6529
2.111867,5505
2.112865,4497
2.113864,6385
2.114862,5121
2.115864,4497
2.116864,4945
2.117864,4641
2.118864,4449
2.119864,4657
2.120864,4433
2.121864,4561
2.122866,4753
2.123865,4257
2.124864,6225
2.125865,5169
2.126865,4993
2.127865,4161
2.128866,5137
2.129865,4769
2.130864,4385
2.131864,4881
2.132864,12643
2.133864,5697
2.134862,7185
2.135863,6177
2.136864,5185
2.137864,4449
2.138865,4577
2.139864,6481
2.140864,5009
2.141865,5585
2.142862,4993
2.143863,5281
2.144864,4417
2.145865,4833
2.146864,4689
2.147864,5265
2.148862,4961
2.149865,4705
2.150864,4417
2.151864,4609
2.152864,4225
2.153864,5409
2.154878,5825
2.155872,4064
2.156866,4161
2.157865,4897
2.158863,4257
2.159865,6017
2.160865,6033
2.161864,5265
2.162864,5137
2.163865,4561
2.164865,4369
2.165866,4016
2.166865,5633
2.167864,5041
2.168865,4305
2.169865,4545
2.170864,4353
2.171863,4705
2.172865,4769
2.173862,4625
2.174863,5057
2.175863,4529
2.176864,4609
2.177863,5185
2.178862,5249
2.179864,5217
2.180865,4641
2.181864,5457
2.182862,4545
2.183865,4801
2.184863,4513
2.185865,4641
2.186864,4385
2.187866,5969
2.188864,4817
2.189865,6177
2.190865,4881
2.191863,5089
2.192862,4609
2.193862,5089
2.194864,5713
2.195863,4401
2.196866,4993
2.197866,4561
2.198866,4097
2.199866,6929
2.200865,5857
2.201864,4113
2.202864,5281
2.203865,4257
2.204866,4481
2.205863,6225
2.206864,4577
2.207865,4897
2.208863,4273
2.209864,5569
2.210864,4689
2.211865,4305
2.212864,4145
2.213864,4433
2.214865,6449
2.215865,5329
2.216863,6033
2.217864,5249
2.218882,4961
2.219868,4129
2.220864,5361
2.221863,4673
2.222863,5009
2.223864,4481
2.224864,4849
2.225862,4913
2.226865,5425
2.227862,4721
2.228863,4801
2.229863,4513
2.230864,4849
2.231865,4369
2.232863,4641
2.233865,5425
2.234864,5793
2.235863,4497
2.236863,5601
2.237863,5041
2.238864,4753
2.239864,4817
2.240864,4929
2.241866,4769
2.242865,5905
2.243864,4401
2.244864,5649
2.245863,4881
2.246865,5985
2.247864,5185
2.248862,4993
2.249865,4481
2.250863,4369
2.251867,4145
2.252864,5425
2.253865,6273
2.254863,5809
2.255865,5585
2.256865,6753
2.257865,5585
2.258862,4945
2.259864,4417
2.260863,5089
2.367277,5393
2.368246,4545
2.368983,5921
2.369696,4737
2.370409,5201
2.371185,6017
2.371895,3968
2.372600,5457
2.373306,5457
2.374033,4961
2.374736,4769
2.375445,5777
2.376154,6081
2.376862,4993
2.377571,4385
2.378280,7089
2.378994,5249
2.379731,6209
2.380443,4545
2.381164,5793
2.381876,5857
2.382590,4913
2.383306,5457
2.384018,4689
2.384733,5265
2.385452,4289
2.386178,4625
2.386900,5057
2.387865,4497
2.388864,4737
2.389863,4977
2.390864,4705
2.391863,4737
2.392863,4529
2.393864,4657
2.394864,5729
2.395864,5361
2.396863,4753
2.397864,5089
2.398864,5713
2.399866,4273
2.400863,4961
2.401865,4897
2.402864,4673
2.403860,4929
2.404864,4417
2.405863,4657
2.406866,5697
2.407864,5745
2.408865,4817
2.409866,4593
2.410892,4897
2.411866,6465
2.412868,5057
2.413866,4241
2.414865,5425
2.415864,4513
2.416863,4817
2.417864,7201
2.418863,5457
2.419866,4817
2.420864,4465
2.421864,4497
2.422864,4625
2.423864,5489
2.424863,4897
2.425864,4577
2.426865,4625
2.427863,4401
2.428863,5329
2.429864,4769
2.430863,5409
2.431865,4785
2.432863,4849
2.433866,4833
2.434863,5377
2.435863,5297
2.436864,5601
2.437864,4545
2.438865,5953
2.439863,4753
2.440862,5633
2.441864,5057
2.442863,7361
2.443866,4993
2.444863,4881
2.445865,4577
2.446865,4561
2.447866,4353
2.448866,4129
2.449864,6369
2.450864,4961
2.451864,4641
2.452866,4769
2.453863,4801
2.454864,5841
2.455866,4913
2.456863,4945
2.457865,5249
2.458863,4529
2.459865,4945
2.460864,4673
2.461865,4705
2.462863,4673
2.463864,4865
2.464866,6577
2.465864,5617
2.466864,4993
2.467863,5009
2.468865,4353
2.469866,4545
2.470864,7313
2.471865,4785
2.472865,4433
2.473863,5089
2.474881,6529
2.475868,4833
2.476866,4433
2.477864,4625
2.478864,4545
2.479864,6385
2.480866,5329
2.481865,5409
2.482865,4513
2.483865,4945
2.484865,4529
2.485863,5969
2.486866,5553
2.487865,4609
2.488864,4513
2.489864,5089
2.490863,4881
2.491864,5057
2.492865,4513
2.493862,4705
2.494863,6113
2.495864,5009
2.496865,4545
2.497865,5793
2.498864,7617
2.499866,4993
2.500864,4689
2.501866,4753
2.502864,4241
2.503864,4849
2.504865,4417
2.505862,6353
2.506862,5441
2.507864,5873
2.508865,4449
2.509864,4609
2.510865,5425
2.511863,6273
2.512863,5393
2.513865,5313
2.514864,5329
2.515862,4465
2.526428,5729
2.526660,6033
2.526866,4769
2.527072,3248
2.527280,4257
2.527486,4353
2.527692,4353
2.527906,6337
2.528114,8258
2.528324,7713
2.528864,6577
2.529865,5937
2.530864,4657
2.531864,4785
2.532865,4881
2.533865,5873
2.534864,4929
2.535865,4609
2.536864,5457
2.537864,4625
2.538882,5313
2.539875,4865
2.540865,5009
2.541863,6321
2.542863,5585
2.543866,4753
2.544864,5393
2.545864,4785
2.546865,5441
2.547865,5169
2.548864,5457
2.549865,4273
2.550864,5617
2.551863,5601
2.552865,5217
2.553865,5249
2.554867,4577
2.555864,5985
2.556866,5505
2.557863,5265
2.558864,5025
2.559862,5073
2.560862,5793
2.715460,5665
2.716028,4913
2.716347,4321
2.716643,4529
2.716932,4961
2.717285,5217
2.717567,4865
2.717856,6529
2.718141,8097
2.718439,7313
2.718723,6849
2.719012,6433
2.719865,4945
2.720863,4913
2.721866,5153
2.722865,5713
2.723864,5185
2.724864,5281
2.725865,5089
2.726865,5201
2.727866,5089
2.728863,6225
2.729864,5121
2.730865,4993
2.731888,6241
2.732871,4609
2.733866,5121
2.734865,4561
2.735864,4945
2.736862,5633
2.737865,5265
2.738864,5217
2.739864,4897
2.740867,4817
2.741864,5089
2.742866,4449
2.743863,6577
2.744864,5425
2.745864,5057
2.746862,4881
2.747865,4929
2.748864,5009
2.749865,4673
2.750864,6017
2.751863,6721
2.752864,5057
2.753864,4769
2.754865,7729
2.755863,5713
2.756865,6561
2.757864,5265
2.758865,4529
2.759863,7089
2.760865,5537
2.761862,5729
2.762866,5121
2.763863,4961
2.764866,4705
2.765866,4785
2.766865,4449
2.767866,7825
2.768864,5185
2.769865,5089
2.770865,5265
2.771864,5761
2.772864,4865
2.773866,4753
2.774864,5761
2.775864,6481
2.776865,5281
2.777864,5073
2.778864,5137
2.779863,5729
2.780864,5009
2.781863,5825
2.782864,5265
2.783864,5201
2.784864,4833
2.785863,4673
2.786863,6001
2.787864,5729
2.788864,5009
2.789866,6321
2.790865,5569
2.791864,4705
2.792864,5825
2.793864,5153
2.794864,5025
2.795880,4161
2.796870,4305
2.797866,5329
2.798865,5137
2.799864,4673
2.800867,5473
2.801866,4961
2.802864,5713
2.803865,5681
2.804865,5537
2.805863,4897
2.806863,5185
2.807865,5073
2.808863,5585
2.809865,5393
2.810864,5457
2.811864,4625
2.812864,5633
2.813865,4945
2.814863,7169
2.815864,5345
2.816864,5201
2.817865,6993
2.818865,6065
2.819864,5185
2.820865,5121
2.821865,4945
2.822864,5217
2.823865,5345
2.824865,4993
2.825864,5377
2.826864,5009
2.827864,4865
2.828864,5601
2.829864,6193
2.830864,5249
2.831864,4913
2.832865,4753
2.833863,5057
2.834866,5185
2.835865,5073
2.836866,6545
2.837864,5041
2.838864,5473
2.839865,4705
2.840864,5601
2.841864,6817
2.842865,5617
2.843864,4897
2.844864,4993
2.845863,6081
2.846864,5569
2.847864,5185
2.848864,5057
2.849866,5377
2.850864,5329
2.851864,5553
2.852866,5137
2.853864,6513
2.854864,5121
2.855865,4753
2.856865,4769
2.857863,5457
2.858862,6577
2.859878,4048
2.860870,4913
2.861869,5009
2.862863,6849
2.863865,4801
2.864865,4801
2.865862,5441
2.866864,5537
2.867865,6033
2.868864,5409
2.869863,5281
2.870864,5345
2.871867,4945
2.872863,5025
2.873866,5665
2.874863,4849
2.875865,4913
2.876865,5217
2.877864,5841
2.878866,5537
2.879863,4945
2.880862,5841
2.881866,7153
2.882864,6081
2.883864,6017
2.884866,4961
2.885867,5249
2.886864,5473
2.887865,5137
2.888865,4945
2.889865,4817
2.890865,4529
2.891864,5281
2.892863,6897
2.893866,4801
2.894863,4977
2.895864,4801
2.896866,5905
2.897863,6289
2.898864,5377
2.899863,4817
2.900865,5697
2.901864,5377
2.902864,5505
2.903864,4929
2.904866,5265
2.905864,5921
2.906866,5025
3.058812,4817
3.059529,4593
3.060013,5361
3.060460,4913
3.060901,4689
3.061408,4657
3.061847,4913
3.062283,4753
3.062719,5041
3.063185,5841
3.063627,5089
3.064070,5265
3.064508,4609
3.064951,4705
3.065394,4641
3.065864,5153
3.066863,5585
3.067864,5441
3.068864,4929
3.069864,5169
3.070867,5889
3.071862,6785
3.072864,6481
3.073864,4353
3.074866,5377
3.075863,5729
3.076863,4625
3.077865,6033
3.078864,6097
3.079864,5169
3.080864,5489
3.081863,5473
3.082863,6049
3.083863,4929
3.084864,5569
3.085864,5553
3.086864,4881
3.087865,6097
3.088864,7137
3.089862,4641
3.090866,7137
3.091864,5185
3.092864,6161
3.093864,5121
3.094865,4961
3.095865,5009
3.096865,6721
3.097865,6241
3.098865,4993
3.099865,5169
3.100866,4641
3.101866,5137
3.102866,5313
3.103861,5281
3.104866,5089
3.105865,5729
3.106866,5457
3.107864,5473
3.108864,5249
3.109864,5041
3.110864,7249
3.111866,5265
3.112863,6337
3.113864,5873
3.114862,7041
3.115887,4609
3.116867,6113
3.117866,5249
3.118864,5729
3.119865,6001
3.120865,5169
3.121865,4353
3.122863,4785
3.123864,5137
3.124863,5089
3.125865,6449
3.126864,5937
3.127864,7009
3.128865,5265
3.129866,5665
3.130864,5409
3.131864,5505
3.132863,5345
3.133862,5345
3.134865,5297
3.135865,5217
3.136865,5697
3.137866,5201
3.138864,5713
3.139864,4913
3.140865,5089
3.141865,6049
3.142864,6241
3.143865,5121
3.144862,4801
3.145864,5249
3.146864,4673
3.147864,5585
3.148864,6145
3.149866,5329
3.150864,5457
3.151864,5537
3.152864,5681
3.153866,4321
3.154864,5777
3.155864,6097
3.156864,5073
3.157864,4577
3.158862,4961
3.159864,4673
3.160866,5921
3.161864,6433
3.162864,5009
3.163866,8578
3.164864,6545
3.165863,5649
3.166866,6289
3.167865,5265
3.168864,5905
3.169864,4817
3.170866,5249
3.171867,5281
3.172864,5169
3.173864,5361
3.174865,5201
3.175862,5697
3.176864,5473
3.177866,5777
3.178864,5889
3.179885,4257
3.180870,4593
3.181864,5617
3.182864,4929
3.183865,4833
3.184864,5697
3.185865,4929
3.186866,4929
3.187864,4737
3.188864,7617
3.189865,7009
3.190864,5569
3.191865,5585
3.192864,5809
3.193866,5313
3.194864,5121
3.195865,6337
3.196866,6193
3.197864,5761
3.198863,5217
3.199865,5153
3.200864,5409
3.201863,3696
3.202864,5281
3.203864,6625
3.204865,5713
3.205865,5169
3.206864,5057
3.207864,5185
3.208864,5633
3.209866,5441
3.210862,4929
3.211865,5217
3.212864,6209
3.213863,6449
3.214863,5825
3.215865,5121
3.216866,5329
3.217864,4289
3.218864,6017
3.219865,5809
3.220864,5697
3.221865,4785
3.222864,4737
3.223863,5729
3.224864,5505
3.225864,5681
3.226860,4161
3.227866,4705
3.228864,6625
3.229864,5169
3.230866,5169
3.231864,5441
3.232864,9826
3.233864,4625
3.234864,5345
3.235865,5089
3.236864,5265
3.237864,5649
3.238863,5185
3.239866,5313
3.240864,5665
3.241864,7729
3.242863,5137
3.243881,5793
3.244870,5745
3.245866,6177
3.246863,5409
3.247865,5121
3.248865,4945
3.249864,4657
3.358536,6113
3.359410,5841
3.360036,4225
3.360629,4000
3.361228,5921
3.361888,4641
3.362482,4177
3.363075,4881
3.363668,4913
3.364282,5073
3.364875,5649
3.365468,5857
3.366062,4064
3.366656,4561
3.367254,4913
3.367851,4433
3.368452,4353
3.369078,4689
3.369675,5281
3.370276,5009
3.371006,4193
3.371868,4769
3.372864,5041
3.373865,5265
3.374864,5249
3.375864,6945
3.376864,5569
3.377861,5057
3.378864,5137
3.379864,6241
3.380864,5297
3.381864,5457
3.382864,5361
3.383864,5425
3.384866,5313
3.385865,4929
3.386864,5153
3.387866,5009
3.388862,5505
3.389864,5937
3.390866,5569
3.391864,5585
3.392865,5377
3.393863,4257
3.394864,5393
3.395865,5649
3.396863,5729
3.397864,5409
3.398866,5473
3.399866,5393
3.400864,5441
3.401866,5489
3.402862,4817
3.403865,5249
3.404864,5009
3.405865,5457
3.406865,5617
3.407863,5025
3.408865,5537
3.409863,4289
3.410864,5553
3.411864,5521
3.412864,5585
3.413864,5089
3.414864,5121
3.415866,4737
3.416862,5585
3.417865,7889
3.418864,6097
3.419864,4817
3.420865,4897
3.421864,5793
3.422864,6705
3.423865,6177
3.424864,5793
3.425866,4032
3.426863,4497
3.427864,5377
3.428864,5793
3.429865,6753
3.430865,6321
3.431865,5313
3.432865,5393
3.433865,5249
3.434883,6417
3.435869,5633
3.436866,6881
3.437864,5153
3.438865,5217
3.439865,5905
3.440865,5297
3.441865,5649
3.442863,5089
3.443865,5073
3.444865,6145
3.445865,6721
3.446864,5377
3.447862,5377
3.448863,4529
3.449863,4113
3.450864,6465
3.451864,5953
3.452864,5969
3.453865,5297
3.454864,4689
3.455863,4545
3.456864,5921
3.457864,5857
3.458865,5025
3.459863,3936
3.460866,5473
3.461864,7185
3.462863,5953
3.463865,4977
3.464864,5969
3.465866,5297
3.466864,6305
3.467865,5665
3.468862,4433
3.469864,4641
3.470864,7793
3.471864,5953
3.472864,5649
3.473863,4337
3.474865,6001
3.475864,4769
3.476865,5857
3.477863,4529
3.478862,3584
3.479864,4481
3.480865,5681
3.481864,6865
3.482865,5777
3.483864,5073
3.484865,5185
3.485865,5201
3.486866,6577
3.487864,4897
3.488864,5601
3.489864,4577
3.490864,4673
3.491865,5457
3.492866,5185
3.493864,4225
3.494864,5281
3.495863,5745
3.496866,5889
3.497864,5905
3.498882,5201
3.499872,5057
3.500864,5201
3.501863,4257
3.502865,5249
3.503865,6577
3.504865,5601
3.505863,5041
3.506866,5297
3.507865,4417
3.508863,6017
3.509865,6385
3.510865,5185
3.511865,5137
3.512864,5281
3.513863,4561
3.514864,5089
3.515864,4609
3.516864,5329
3.517866,5745
3.518864,5281
3.519864,4193
3.520863,3888
3.521864,4016
3.522865,5921
3.523863,8594
3.524865,7713
3.525864,4625
3.526864,4401
3.527862,5473
3.528864,6113
3.529863,4369
3.530865,4897
3.531864,5841
3.532864,4193
3.533865,6305
3.534866,5617
3.535866,6177
3.536866,4929
3.537864,4321
3.538866,4945
3.539864,6289
3.540863,3840
3.541866,6241
3.542865,4993
3.543866,5089
3.544864,6833
3.545865,4849
3.546864,4145
3.547865,4481
3.548864,6657
3.549864,4897
3.710777,5281
3.711803,5345
3.712602,5137
3.713367,3872
3.714124,4016
3.714955,4433
3.715707,4305
3.716461,4577
3.717218,6801
3.717994,5713
3.718748,5889
3.719508,4945
3.720266,4657
3.721029,4609
3.721786,4097
3.722546,5649
3.723309,6193
3.724096,5825
3.724858,4113
3.725619,5873
3.726384,4465
3.727150,6497
3.727916,5697
3.728677,4513
3.729444,4064
3.730208,4113
3.730974,5281
3.731742,5265
3.732510,4881
3.733277,4657
3.734046,5761
3.734811,4561
3.735578,5441
3.736389,6161
3.737162,4689
3.737936,4048
3.738862,3936
3.739865,5313
3.740862,4145
3.741864,4593
3.742862,4689
3.743866,4721
3.744864,4064
3.745865,5937
3.746866,7777
3.747864,4753
3.748864,4401
3.749865,4481
3.750863,6817
3.751864,3904
3.752864,3904
3.753864,3872
3.754881,6753
3.755866,5457
3.756864,6289
3.757864,4016
3.758864,3648
3.759865,4225
3.760866,5841
3.761864,5729
3.762862,5681
3.763867,6417
3.764864,4353
3.765865,3920
3.766863,4289
3.777140,6897
3.777360,5121
3.777563,5009
3.777771,5089
3.777979,5793
3.778185,5633
3.778394,5617
3.778604,4929
3.778814,5153
3.779030,5185
3.779865,3888
3.780866,4016
3.781864,6609
3.782863,4193
3.783864,5297
3.784864,4497
3.785864,3584
3.786864,4113
3.787867,6993
3.788865,5649
3.789865,4113
3.790865,3984
3.791862,5825
3.792864,5089
3.793864,4353
3.794864,6401
3.795864,4705
3.796864,5457
3.797864,4737
3.798864,3904
3.799865,5633
3.800865,5041
3.801862,4625
3.802866,5121
3.803864,4929
3.804864,4064
3.805863,4032
3.806863,4097
3.807864,7281
3.808862,7233
3.809865,5041
3.810864,4161
3.811865,5649
3.812864,5217
3.813864,5969
3.814866,4289
3.815864,4257
3.816863,5841
3.817864,5073
3.818880,4353
3.819869,5057
3.820867,4561
3.821866,4545
3.822864,4369
3.823865,4113
3.824865,6241
3.825865,6097
3.826864,3712
3.827866,4705
3.828865,5377
3.829864,4225
3.830862,5633
3.831863,4881
3.832864,4064
3.833863,5009
3.834863,4000
3.835863,3856
3.836864,5521
3.837866,4145
3.838864,3936
3.839863,5457
3.840862,4769
3.841865,3840
3.842864,5617
3.843864,6081
3.844864,5473
3.845865,4449
3.846867,4193
3.847864,4849
3.848864,4449
3.849862,4305
3.850864,4048
3.851864,3552
3.852864,6321
3.853864,4032
3.854863,6721
3.855866,5249
3.856865,4993
3.857864,4417
3.858864,4769
3.859865,4305
3.860864,5425
3.861862,3872
3.862866,6881
3.863866,5217
3.864862,7217
3.865863,5009
3.866865,4561
3.867865,4321
3.868865,4433
3.869866,4113
3.870865,4257
3.871864,4129
3.872864,3936
3.873864,4433
3.874861,5441
3.875864,5937
3.876863,4032
3.877864,5009
3.878864,4961
3.879864,4817
3.880864,3728
3.881865,4625
3.882879,6353
3.883875,5777
3.884865,4577
3.885864,4161
3.886863,4048
3.887862,4529
3.888864,5905
3.889864,6433
3.890865,4273
3.891864,5969
3.892866,5377
3.893864,4000
3.894863,4257
3.895863,4289
3.896862,4145
3.897864,4177
3.898864,4273
3.899864,4657
3.900864,5153
3.901862,7489
3.902862,5633
3.903866,4561
4.054584,6209
4.055202,5281
4.055582,4929
4.055930,5505
4.056267,4897
4.056665,4273
4.057004,4753
4.057340,5073
4.057672,6177
4.058034,5457
4.058370,5777
4.058710,5281
4.059055,6401
4.059863,5233
4.060864,5633
4.061864,5265
4.062864,6225
4.063867,6097
4.064864,5169
4.065865,4737
4.066863,5281
4.067865,4609
4.068865,4080
4.069863,4481
4.070864,3936
4.071864,6225
4.072865,4529
4.073866,4481
4.074885,4849
4.075869,5345
4.076864,4353
4.077864,4753
4.078866,3760
4.079864,4064
4.080864,5569
4.081864,5393
4.082866,5761
4.083865,4561
4.084864,4129
4.085864,4433
4.086866,3888
4.087864,4785
4.088864,4881
4.089864,4161
4.090864,4097
4.091863,4849
4.092865,5777
4.093864,5297
4.094866,5681
4.095863,4657
4.096866,4737
4.097862,5057
4.098864,4513
4.099866,4080
4.100866,4481
4.101864,4193
4.102865,4097
4.103866,6897
4.104865,5921
4.105863,4561
4.106865,5217
4.107863,4929
4.108865,4353
4.109866,4433
4.110863,5697
4.111863,5361
4.112864,4385
4.113864,4609
4.114863,7281
4.115864,6705
4.116864,4241
4.117864,4881
4.118865,4161
4.119863,4529
4.120866,4369
4.121865,4016
4.122863,5073
4.123865,5281
4.124865,4449
4.125865,4129
4.126865,5345
4.127864,4385
4.128865,4497
4.129864,7553
4.130864,5281
4.131864,4561
4.132866,4080
4.133864,4145
4.134864,5569
4.135862,4993
4.136863,4705
4.137864,4657
4.138876,4945
4.139869,5457
4.140866,4401
4.141866,4097
4.142865,4769
4.143865,6449
4.144864,5825
4.145866,5553
4.146864,4833
4.147867,5009
4.148864,4513
4.149863,4689
4.150865,4721
4.151864,4353
4.152866,3856
4.153864,5633
4.154866,4241
4.155862,4481
4.156864,4385
4.157864,4145
4.158864,7137
4.159864,5313
4.160864,5393
4.161864,4273
4.162864,5329
4.163864,5937
4.164864,5345
4.165864,4369
4.166865,4032
4.167864,4785
4.168866,4993
4.169864,6177
4.170866,5265
4.171864,5249
4.172863,8129
4.173864,5025
4.174865,3760
4.175864,4000
4.176864,6049
4.177865,4529
4.178864,5553
4.179865,5281
4.180862,4497
4.181864,5841
4.182865,4113
4.183864,3984
4.184864,5841
4.185864,5329
4.186864,4321
4.187864,4353
4.188864,5137
4.189864,4785
4.190864,4641
4.191864,4097
4.192863,5473
4.193864,4673
4.194864,4561
4.195865,4321
4.196866,3968
4.197863,4529
4.198866,3792
4.199864,5457
4.200863,4369
4.201863,5041
4.202912,7745
4.203873,6593
4.204868,6529
4.205864,4705
4.206863,4097
4.207863,4897
4.208865,4289
4.209866,3936
4.210865,3856
4.211866,7649
4.212865,4257
4.213865,4433
4.214863,6145
4.215866,5025
4.216865,4545
4.217864,4064
4.218864,4177
4.219864,5377
4.220865,5585
4.221865,4865
4.222863,4689
4.223866,4289
4.224863,4401
4.225865,4417
4.226861,4689
4.227864,4113
4.228864,5137
4.229862,4897
4.230864,5217
4.231866,4064
4.232864,4193
4.233865,5185
4.234864,4593
4.235866,3552
4.236863,6225
4.237864,4657
4.238865,4113
4.239865,4689
4.240865,5569
4.241862,5921
4.242866,4769
4.243862,4449
4.244864,4609
4.245866,4321
4.358890,5297
4.359621,3936
4.360145,4849
4.360636,5713
4.361131,6977
4.361682,5393
4.362176,6273
4.362665,5265
4.363157,5009
4.363668,4289
4.364165,5681
4.364654,5649
4.365150,6241
4.365640,4561
4.366138,5361
4.366634,4929
4.367135,5921
4.367864,4353
4.368865,4785
4.369865,5025
4.370863,7313
4.371864,5041
4.372861,4625
4.373864,4016
4.374864,6289
4.375864,4225
4.376862,4385
4.377864,6529
4.378865,3952
4.379866,4177
4.380863,5281
4.381864,5889
4.382864,6049
4.383865,4433
4.384864,4497
4.385864,5073
4.386865,4353
4.387864,4353
4.388865,4673
4.389864,4721
4.390864,3856
4.391865,4561
4.392864,7681
4.393865,4801
4.394865,4833
4.395888,4753
4.396867,5041
4.397865,4817
4.398863,4193
4.399864,4513
4.400863,5185
4.401863,4305
4.402865,4625
4.403865,4449
4.404864,4080
4.405864,5089
4.406865,4289
4.407865,3904
4.408863,4897
4.409864,4737
4.410866,5345
4.411865,4625
4.412864,5057
4.413863,4689
4.414864,4577
4.415863,4609
4.416864,4961
4.417864,4593
4.418864,4625
4.419866,5409
4.420863,4945
4.421862,4497
4.422863,4577
4.423863,4161
4.424864,4769
4.425864,4064
4.426865,6721
4.427866,4417
4.428864,4161
4.429863,5569
4.430864,6481
4.431864,4801
4.432865,4785
4.433862,4833
4.434864,4016
4.435864,5329
4.436865,5185
4.437863,4257
4.438865,4417
4.439863,6289
4.440864,4257
4.441865,4641
4.442865,6369
4.443863,4657
4.444862,4289
4.445866,4849
4.446865,4417
4.447864,4545
4.448864,4897
4.449865,5569
4.450862,4433
4.451866,3984
4.452864,5329
4.453862,5169
4.454865,4321
4.455864,5473
4.456866,5905
4.457862,4417
4.458878,8354
4.459871,5169
4.460868,6801
4.461862,6289
4.462862,4673
4.463865,6209
4.464865,4881
4.465863,4993
4.466865,5473
4.467865,5201
4.468864,4417
4.469864,4705
4.470865,5217
4.471866,4273
4.472865,4705
4.473863,4353
4.474866,4401
4.475864,4529
4.476864,4257
4.477865,4481
4.478865,5857
4.479866,4449
4.480864,5201
4.481865,5409
4.482863,4641
4.483866,4481
4.484863,4177
4.485865,4673
4.486864,4561
4.487865,4225
4.488865,6273
4.489864,4289
4.490864,4369
4.491863,4785
4.492862,5329
4.493863,5153
4.494864,6913
4.495864,5041
4.496864,4497
4.497863,6161
4.498864,4385
4.499862,4865
4.500862,4465
4.501864,5713
4.502863,5233
4.503866,4080
4.504865,4193
4.505863,6497
4.506864,5217
4.507865,4385
4.508864,4385
4.509862,4305
4.510865,4689
4.511864,5281
4.512862,4161
4.513864,4513
4.514863,7441
4.515866,4737
4.516864,4737
4.517863,5137
4.518864,3984
4.519866,3904
4.520863,4369
4.521863,6705
4.522882,5857
4.523871,3920
4.524863,5201
4.525864,5041
4.526864,4305
4.527864,5601
4.528864,4929
4.529865,4321
4.530864,4865
4.531866,4129
4.532863,4897
4.533864,6353
4.534862,4353
4.535864,4064
4.536863,4048
4.537863,4417
4.538860,4353
4.539863,5713
4.540864,4897
4.541865,4785
4.542865,4673
4.543864,5329
4.544864,5217
4.545864,4929
4.546862,5249
4.547865,5041
4.548864,4561
4.549864,4305
4.709964,5009
4.710861,5505
4.711539,4609
4.712191,4032
4.712834,4993
4.713544,4705
4.714194,5601
4.715079,4817
4.715731,5377
4.716406,6257
4.717059,5953
4.717707,5297
4.718356,5297
4.719008,5121
4.719652,5841
4.720302,5601
4.720958,5281
4.721631,4753
4.722287,4625
4.722939,4785
4.723585,4545
4.724238,4161
4.724896,4929
4.725551,5809
4.726208,5905
4.726860,4705
4.727862,4305
4.728863,5393
4.729865,7201
4.730865,6337
4.731864,4929
4.732864,4113
4.733867,5121
4.734864,4529
4.735864,4449
4.736864,5313
4.737864,5297
4.738864,4177
4.739864,4737
4.740863,4753
4.741866,6289
4.742864,5857
4.743862,5505
4.744866,5297
4.745864,8081
4.746862,4993
4.747864,5473
4.748864,5073
4.749863,5089
4.750865,4241
4.751863,5105
4.752864,5121
4.753863,5841
4.754865,4993
4.755864,4609
4.756864,4225
4.757862,4401
4.758865,4145
4.759862,5473
4.760866,4177
4.761862,5569
4.762864,4945
4.763865,5841
4.764864,6161
4.765863,4561
4.766862,4449
4.767865,4369
4.768863,4929
4.769864,6593
4.770864,5345
4.771865,4433
4.772867,4481
4.773864,4689
4.774864,4737
4.775867,4129
4.776865,4369
4.777863,6241
4.778893,4417
4.779873,5153
4.780867,5281
4.781864,5793
4.782864,5825
4.783864,4801
4.784864,4497
4.785865,6401
4.786866,5377
4.787864,4641
4.788865,4945
4.789864,5025
4.790862,4529
4.791863,4561
4.792863,5025
4.793866,5089
4.794863,4577
4.795864,4305
4.796864,4737
4.797864,4945
4.798864,5153
4.799863,5457
4.800863,5009
4.801864,4993
4.802864,7089
4.803864,5713
4.804864,7825
4.805864,6833
4.806862,5665
4.807864,5553
4.808865,5137
4.809865,4481
4.810864,4577
4.811863,5425
4.812864,5217
4.813864,4593
4.814865,4993
4.815864,4737
4.816864,5041
4.817864,5569
4.818862,4513
4.819864,4769
4.820865,4513
4.821864,4193
4.822865,5537
4.823862,4577
4.824866,4337
4.825866,5617
4.826864,4193
4.827863,4849
4.828865,5585
4.829862,5121
4.830862,5009
4.831866,4737
4.832865,3840
4.833865,5041
4.834865,5649
4.835864,4609
4.836863,4929
4.837864,7505
4.838864,5297
4.839863,8113
4.840865,8578
4.841864,5329
4.842908,5697
4.843871,3984
4.844866,4833
4.845864,4913
4.846864,4673
4.847862,5089
4.848864,4673
4.849865,5233
4.850863,4369
4.851864,4865
4.852864,4801
4.853863,4449
4.854865,4993
4.855862,5153
4.856864,4577
4.857864,4481
4.858863,4785
4.859864,5793
4.860864,9058
4.861864,6849
4.862865,5921
4.863864,5009
4.864865,4769
4.865864,5089
4.866863,4865
4.867864,4353
4.868865,4529
4.869866,5761
4.870863,4657
4.871863,7057
4.872865,6993
4.873862,5265
4.874863,4929
4.875866,4529
4.876866,5153
4.877864,5361
4.878865,4785
4.879865,4529
4.880866,5265
4.881864,4801
4.882862,5153
4.883861,4865
4.884864,4465
4.885863,4545
4.886864,6385
4.887865,5713
4.888863,5009
4.889864,4625
4.890862,4513
4.891864,4881
4.892863,6273
4.893865,4929
4.894863,4833
4.895864,5009
4.896864,4529
4.897866,5217
4.898865,5409
4.899864,4705
4.900866,4609
5.062010,4561
5.064083,0
5.065063,5313
5.065924,5713
5.066747,6673
5.067629,4048
5.068442,5809
5.069254,5889
5.070063,6417
5.070892,4321
5.071700,5249
5.072511,5793
5.073326,6433
5.074139,6433
5.074956,5281
5.075773,4849
5.083118,9570
5.083352,8177
5.083560,7185
5.083768,6081
5.083977,5505
5.084191,5473
5.084404,5297
5.084616,4897
5.084830,5025
5.085045,4817
5.085864,5553
5.086865,5265
5.087864,4705
5.088864,4305
5.089864,5553
5.090865,5345
5.091865,4897
5.092864,6369
5.093867,5313
5.094865,5233
5.095864,5185
5.096866,5009
5.097863,4897
5.098863,5681
5.099885,5841
5.100868,4625
5.101866,4641
5.102864,4961
5.103864,5041
5.104864,5089
5.105864,5969
5.106864,5057
5.107865,4753
5.108864,5153
5.109862,5137
5.110865,4833
5.111863,4945
5.112862,5313
5.113865,5425
5.114865,4881
5.115864,4529
5.116862,5025
5.117861,5041
5.118866,5809
5.119864,5585
5.120864,5313
5.121864,7153
5.122864,4833
5.123863,4929
5.124863,6801
5.125865,5665
5.126865,5841
5.127864,5393
5.128863,6113
5.129865,5057
5.130867,5441
5.131864,4545
5.132863,5361
5.133861,6705
5.134865,4977
5.135863,4641
5.136863,4625
5.137864,6337
5.138865,5665
5.139864,7825
5.140864,4913
5.141862,5601
5.142864,5361
5.143865,4241
5.144864,4881
5.145864,5089
5.146863,5153
5.147865,4625
5.148865,4417
5.149864,5105
5.150863,5041
5.151865,4080
5.152865,4737
5.153864,6945
5.154864,4497
5.155864,4817
5.156864,5505
5.157867,5217
5.158864,5009
5.159864,5969
5.160865,4689
5.161864,5569
5.162863,5249
5.163881,5217
5.164869,4113
5.165867,4529
5.166866,5777
5.167864,4865
5.168864,5089
5.169864,5729
5.170864,5025
5.171864,4817
5.172865,4865
5.173864,5265
5.174864,6017
5.175862,5153
5.176864,4689
5.177862,4833
5.178865,5057
5.179864,5041
5.180863,6449
5.181864,5665
5.182863,6961
5.183865,6561
5.184865,4625
5.185865,5617
5.186865,4801
5.187865,6209
5.188864,7649
5.189864,4737
5.190864,4641
5.191866,5985
5.192865,5185
5.193864,4609
5.194864,4561
5.195864,6225
5.196864,5057
5.197865,5089
5.198865,5169
5.199862,5825
5.200863,5553
5.201863,5713
5.202865,5121
5.203866,4753
5.204864,4385
5.205864,5809
5.206864,4881
5.207864,4785
5.208863,4961
5.209864,4881
5.210865,4817
5.211864,5505
5.212865,4929
5.213863,5505
5.214864,4545
5.215864,4801
5.216864,4657
5.217862,6305
5.218865,6097
5.219864,6097
5.220864,5009
5.221864,4945
5.222864,5089
5.223866,4737
5.224864,5425
5.225865,4545
5.226864,4625
5.227878,6849
5.228868,4769
5.229867,5073
5.230865,5409
5.231864,5073
5.232865,4641
5.233862,5585
5.234864,4993
5.235864,5201
5.236863,5649
5.237864,4849
5.238864,5729
5.239864,5073
5.240864,4913
5.241866,4913
5.242866,4641
5.243865,4529
5.244866,4881
5.245864,6225
5.246866,5393
5.247862,5281
5.248866,5217
5.249864,5137
5.250864,5249
5.251864,5313
5.252863,5393
5.253863,4993
5.254864,4657
5.255866,4865
5.256864,5265
5.257863,6209
5.258865,5121
5.374742,3968
5.375372,4657
5.375763,5633
5.376138,4801
5.376506,4097
5.376942,4849
5.377308,4145
5.377677,4241
5.378049,5009
5.378428,5937
5.378796,7681
5.379169,9474
5.379532,7601
5.379902,6273
5.380864,5553
5.381865,6097
5.382862,4897
5.383865,5281
5.384863,5585
5.385864,5457
5.386864,4881
5.387866,5377
5.388864,5201
5.389865,5073
5.390866,4753
5.391865,5329
5.392866,5121
5.393864,4929
5.394864,5073
5.395863,4913
5.396863,5745
5.397865,5841
5.398865,4801
5.399864,5409
5.400863,5489
5.401865,4657
5.402865,4961
5.403864,5121
5.404863,5457
5.405864,4545
5.406864,5201
5.407866,4785
5.408863,7089
5.409864,5041
5.410864,4945
5.411864,6369
5.412866,5217
5.413863,5233
5.414866,5905
5.415864,5457
5.416865,4833
5.417865,5201
5.418864,5505
5.419885,5025
5.420869,4641
5.421866,4913
5.422865,5601
5.423864,5457
5.424864,5137
5.425866,5201
5.426865,5297
5.427863,5249
5.428864,5025
5.429864,5041
5.430862,5569
5.431866,4897
5.432865,5025
5.433863,5105
5.434865,4785
5.435864,5329
5.436864,4929
5.437864,4961
5.438863,5281
5.439866,6577
5.440864,6625
5.441863,6257
5.442863,5969
5.443864,5217
5.444863,5057
5.445867,4673
5.446865,5025
5.447865,6897
5.448867,4689
5.449866,4849
5.450864,6289
5.451864,5377
5.452866,4993
5.453862,5073
5.454865,4929
5.455865,4673
5.456864,6097
5.457864,5665
5.458862,6161
5.459865,5265
5.460862,5121
5.461864,4753
5.462866,5937
5.463865,5777
5.464864,5137
5.465865,5025
5.466865,5713
5.467864,5249
5.468864,5169
5.469864,5537
5.470862,5665
5.471863,4769
5.472864,5313
5.473865,5345
5.474864,5473
5.475863,5121
5.476863,5313
5.477866,4689
5.478864,5521
5.479865,5585
5.480865,5297
5.481865,5057
5.482885,4833
5.483867,5137
5.484869,4897
5.485863,6113
5.486864,6049
5.487865,5201
5.488864,5185
5.489864,4801
5.490866,5297
5.491864,4865
5.492863,5729
5.493864,5009
5.494864,6561
5.495864,6097
5.496862,4929
5.497865,6225
5.498863,4641
5.499864,5729
5.500864,6113
5.501862,4977
5.502864,6081
5.503864,6033
5.504864,5009
5.505866,6049
5.506865,5089
5.507865,5265
5.508862,6753
5.509863,5441
5.510864,5537
5.511865,5297
5.512864,5153
5.513864,4689
5.514865,4833
5.515865,5121
5.516864,5905
5.517863,7153
5.518863,5313
5.519866,4785
5.520864,5441
5.521862,7713
5.522862,6385
5.523866,5041
5.524863,5361
5.525864,5697
5.526864,5041
5.527863,5121
5.528865,5137
5.529864,5665
5.530864,5569
5.531865,5025
5.532864,5089
5.533864,4913
5.534864,5425
5.535863,5345
5.536863,4881
5.537864,5953
5.538864,5809
5.539864,4673
5.540864,4689
5.541864,6529
5.542864,5329
5.543864,4609
5.544866,5905
5.545864,5825
5.546877,4945
5.547869,5329
5.548866,5153
5.549865,5697
5.550864,5713
5.551862,5905
5.552866,5713
5.553864,4801
5.554864,5073
5.555864,5873
5.556864,5121
5.557864,5009
5.558864,5713
5.559863,5457
5.560864,5009
5.561862,5761
5.562865,5425
5.563864,5585
5.564864,5809
5.565865,5169
5.729977,4641
5.730749,4673
5.731304,4000
5.731835,3840
5.732357,4673
5.732946,5969
5.733464,6417
5.733983,5185
5.734500,4529
5.735041,5345
5.735564,4993
5.736092,3664
5.736613,4865
5.737139,6561
5.737662,5633
5.738187,5169
5.738858,5985
5.739427,6945
5.739960,6961
5.740864,5137
5.741864,5729
5.742863,4897
5.743863,5649
5.744866,5729
5.745864,7073
5.746865,5697
5.747864,5969
5.748866,5137
5.749863,5569
5.750863,6033
5.751864,6657
5.752864,4673
5.753864,5345
5.754864,5073
5.755865,7937
5.756865,6081
5.757865,6241
5.758865,6225
5.759864,5665
5.760866,5025
5.761864,10690
5.762866,8161
5.763864,6641
5.764862,6241
5.765864,5953
5.766862,5009
5.767866,4753
5.768864,6017
5.769864,5649
5.770864,5825
5.771863,5921
5.772864,5713
5.773864,5281
5.774863,5185
5.775864,4929
5.776864,6337
5.777865,3616
5.778864,6497
5.779864,6625
5.780864,8978
5.781865,7809
5.782865,4817
5.783865,5153
5.784864,7697
5.785864,7345
5.786864,5457
5.787864,5409
5.788865,5441
5.789864,5137
5.790866,8642
5.791864,5969
5.792862,5105
5.793864,4129
5.794864,6465
5.795863,6769
5.796864,5265
5.797866,7073
5.798865,6817
5.799866,5569
5.800866,5041
5.801864,5681
5.802882,6337
5.803870,7265
5.804863,4977
5.805866,7265
5.806865,6049
5.807862,6529
5.808866,5153
5.809864,6033
5.810864,6945
5.811864,5137
5.812864,5313
5.813865,5105
5.814866,7857
5.815863,5425
5.816864,5761
5.817865,5793
5.818864,5169
5.819864,6289
5.820864,6561
5.821865,6913
5.822864,5793
5.823863,6049
5.824864,5569
5.825862,4705
5.826865,7377
5.827863,6033
5.828864,5777
5.829862,4705
5.830866,4945
5.831862,5249
5.832863,8177
5.833863,10850
5.834863,6337
5.835866,4881
5.836866,6577
5.837865,5377
5.838865,5217
5.839865,6689
5.840864,8338
5.841866,3888
5.842862,7233
5.843864,7889
5.844862,5665
5.845862,4977
5.846864,5121
5.847865,5105
5.848862,6705
5.849864,7345
5.850866,6209
5.851864,6689
5.852864,8674
5.853863,5041
5.854864,6241
5.855864,5121
5.856864,6401
5.857866,6321
5.858864,6209
5.859865,6801
5.860863,4881
5.861864,5969
5.862863,6993
5.863866,5393
5.864863,5233
5.865863,5729
5.866875,4641
5.867869,5681
5.868865,6017
5.869864,8177
5.870865,7073
5.871864,7697
5.872864,5697
5.873862,4961
5.874862,5889
5.875863,5041
5.876863,5361
5.877866,4913
5.878863,6721
5.879864,6065
5.880864,8466
5.881864,5953
5.882864,8898
5.883864,9442
5.884864,5041
5.885862,5761
5.886866,4993
5.887864,4913
5.888866,4961
5.889864,4881
5.890864,5201
5.891864,7185
5.892864,15187
5.893864,11586
5.894865,6033
5.895865,5761
5.896865,5297
5.897862,4241
5.898862,11074
5.899864,13843
5.900865,5217
5.901864,5089
5.902865,5953
5.903863,8386
5.904864,5905
5.905863,4401
5.906864,7617
5.907862,4465
5.908863,5473
5.909865,6561
5.910862,6977
5.911865,7937
5.912864,7713
5.913864,6193
5.914862,7633
5.915865,9490
5.916864,8594
5.917864,6193
5.918866,12162
5.919863,5489
5.920866,4753
6.083585,18324
6.084529,28246
6.085241,26518
6.085918,11634
6.086592,6065
6.087333,7617
6.088011,4785
6.088680,18788
6.089352,10850
6.090050,4769
6.090719,11346
6.091399,5425
6.092080,11346
6.092752,8706
6.093429,4657
6.094107,5441
6.094786,5585
6.095494,6305
6.096173,12066
6.096855,11986
6.097534,8530
6.098214,9778
6.098898,5697
6.099574,11234
6.100261,14339
6.100945,18948
6.101866,21205
6.102864,8434
6.103865,6769
6.104861,10402
6.105865,9714
6.106864,17540
6.107862,10914
6.108864,9506
6.109866,20036
6.110865,5665
6.111864,7441
6.112865,29863
6.113864,21605
6.114867,8177
6.115862,4785
6.116864,8546
6.117863,20324
6.118864,6209
6.119863,10498
6.120865,23125
6.121864,22341
6.122865,12707
6.123883,15107
6.124871,6753
6.125867,10530
6.126864,8177
6.127864,21301
6.128865,27478
6.129865,10114
6.130864,10658
6.131863,5393
6.132864,6721
6.133864,8770
6.134865,5665
6.135864,24806
6.136864,8017
6.137866,11906
6.138864,30951
6.139864,8770
6.140867,8145
6.141864,4097
6.142864,4449
6.143864,5521
6.144863,20885
6.145865,15811
6.146864,7041
6.147863,13715
6.148862,21045
6.149864,17956
6.150863,6961
6.151864,5185
6.152865,10882
6.153864,8914
6.154864,17188
6.155866,21557
6.156863,5937
6.157864,5185
6.158866,5233
6.159864,8402
6.160864,10018
6.161863,14995
6.162864,8994
6.163866,5873
6.164865,6753
6.165863,4737
6.166866,8017
6.167862,6593
6.168864,5553
6.169862,23237
6.170865,6705
6.171865,17956
6.172865,19332
6.173864,28502
6.174863,35384
6.175864,7889
6.176864,15011
6.177862,43946
6.178865,21861
6.179865,30967
6.180864,4289
6.181863,25862
6.182867,18884
6.183866,16676
6.184865,5265
6.185864,20052
6.186864,4417
6.187882,9410
6.188868,6321
6.189866,5585
6.190864,6113
6.191866,7057
6.192864,8994
6.193864,12082
6.194864,31687
6.195865,15331
6.196862,4625
6.197864,4513
6.198865,8322
6.199864,10082
6.200863,6625
6.201866,5521
6.202864,5409
6.203864,30407
6.204864,20068
6.205863,11346
6.206864,14131
6.207866,8450
6.208864,17812
6.209864,4561
6.210865,5073
6.211862,6177
6.212866,5537
6.213864,12675
6.214865,9634
6.215865,8177
6.216864,6449
6.217864,9186
6.218862,25046
6.219864,12339
6.220866,10082
6.221865,48859
6.222864,49852
6.223864,5841
6.224864,30391
6.225866,23685
6.226864,4881
6.227864,7553
6.228865,12531
6.229864,4273
6.230864,15571
6.231865,22437
6.232864,14611
6.233863,31639
6.234866,6801
6.235865,22277
6.236864,14835
6.237865,4961
6.238865,9858
6.239864,4657
6.240863,5505
6.241865,7041
6.242865,6417
6.243863,39417
6.244865,5313
6.245865,19316
6.246866,5009
6.247864,8402
6.248863,12371
6.249861,10018
6.250865,5617
6.251877,25670
6.252864,6481
6.253865,4193
6.254864,14355
6.255864,10930
6.256863,9682
6.257865,12595
6.258865,5473
6.259864,21845
6.260866,15603
6.261862,7217
6.262864,20116
6.263864,9650
6.264866,6321
6.265865,5697
6.266864,4849
6.267864,26310
6.268864,34440
6.269864,5521
6.270863,4657
6.271866,6529
6.272864,11234
6.273864,16099
6.274865,13363
6.438233,7905
6.438712,24902
6.438988,38745
6.439232,45691
6.439462,54125
6.439718,54925
6.439956,51164
6.440187,43626
6.440425,36248
6.440676,17588
6.440914,5825
6.441863,23653
6.442864,25094
6.443885,4913
6.444868,13027
6.445866,6929
6.446866,28679
6.447863,23477
6.448864,33544
6.449864,37161
6.450865,25926
6.451865,25574
6.452864,6001
6.453863,8706
6.454863,27558
6.455864,19332
6.456863,42586
6.457863,38041
6.458864,8594
6.459864,25542
6.460865,65535
6.461864,29735
6.462865,18308
6.463865,8578
6.464863,24197
6.465865,46219
6.466864,13379
6.467864,6145
6.468864,20404
6.469863,12050
6.470863,6737
6.471864,17780
6.472863,6945
6.473865,6305
6.474864,10434
6.475864,20741
6.476864,6865
6.477865,7329
6.478865,6817
6.479864,16676
6.480865,11106
6.481866,14227
6.482864,22565
6.483865,43578
6.484862,7873
6.485866,14163
6.486867,33672
6.487864,6609
6.488863,12339
6.489863,25142
6.490864,16804
6.491864,12371
6.492866,10050
6.493864,24501
6.494864,25094
6.495862,23605
6.496864,16820
6.497863,13011
6.498862,21013
6.499862,17076
6.500864,4785
6.501863,20885
6.502865,30951
6.503863,14803
6.504867,4641
6.505865,12531
6.506881,5777
6.507870,43178
6.508864,40089
6.509866,9906
6.510865,14051
6.511866,23781
6.512863,16259
6.513864,14387
6.514863,10274
6.515863,17412
6.516864,21861
6.517864,8065
6.518866,4625
6.519864,4545
6.520862,7905
6.521865,28054
6.522864,55789
6.523864,24149
6.524863,27830
6.525864,6721
6.526865,16964
6.527864,8177
6.528864,14563
6.529865,8049
6.530864,10370
6.531864,10882
6.532865,14691
6.533863,40345
6.534865,61455
6.535866,50508
6.536863,12547
6.537865,43834
6.538864,65535
6.539865,61535
6.540864,38569
6.541862,17156
6.542867,10370
6.543864,10210
6.544864,13539
6.545864,13907
6.546864,5073
6.547865,38201
6.548863,31239
6.549862,9106
6.550863,14067
6.551863,4369
6.552866,5777
6.553863,20581
6.554864,12611
6.555866,4881
6.556864,19876
6.557864,34536
6.558863,8578
6.559866,29591
6.560864,8274
6.561866,61390
6.562864,14995
6.563864,11346
6.564865,18212
6.565863,11938
6.566864,5393
6.567865,7969
6.568865,34504
6.569866,17716
6.570877,7697
6.571869,10610
6.572864,11490
6.573864,35496
6.574866,37353
6.575864,20533
6.576865,14275
6.577864,8610
6.578863,9362
6.579864,44858
6.580866,38409
6.581865,5633
6.582865,33576
6.583865,29799
6.584864,25158
6.585866,6705
6.586864,28438
6.587863,4689
6.588865,9858
6.589865,17284
6.590864,9586
6.591865,25366
6.592864,8978
6.593866,7729
6.594864,18052
6.595863,5905
6.596864,4865
6.597864,6593
6.598863,34520
6.599866,8226
6.600864,34872
6.601864,36008
6.602865,32567
6.603864,24662
6.604866,31335
6.605862,22901
6.606864,4625
6.607866,12931
6.608865,8177
6.609864,5905
6.610864,14947
6.611866,24405
6.612863,6881
6.613864,8177
6.614864,8722
6.615866,4465
6.616864,25494
6.617865,23589
6.618864,13507
6.619864,22981
6.620862,9714
6.621865,4641
6.622863,14275
6.623864,6289
6.624866,39833
6.625863,56125
6.626863,6321
6.627864,4961
6.628865,7105
6.629865,31543
6.786989,23781
6.787617,18148
6.788040,18852
6.788432,8065
6.788817,6017
6.789273,9250
6.789652,6241
6.790040,11938
6.790426,6577
6.790833,14851
6.791222,22821
6.791609,18564
6.791998,8081
6.792387,10834
6.792864,12627
6.793864,29095
6.794864,6145
6.795864,12771
6.796866,11794
6.797865,25942
6.798866,4609
6.799865,14179
6.800862,7697
6.801864,39401
6.802864,20533
6.803864,6273
6.804864,6353
6.805864,4945
6.806865,16580
6.807866,31463
6.808863,8065
6.809862,35608
6.810864,16644
6.811864,23861
6.812864,14771
6.813866,13603
6.814864,14771
6.815865,4737
6.816866,4945
6.817865,6945
6.818864,24341
6.819865,18308
6.820865,8706
6.821864,25350
6.822865,8594
6.823863,37225
6.824865,39097
6.825864,24854
6.826864,7329
6.827883,12979
6.828872,32327
6.829869,6289
6.830864,9170
6.831868,4545
6.832865,4737
6.833865,14035
6.834865,4881
6.835865,5297
6.836864,7985
6.837862,8418
6.838864,6753
6.839866,8674
6.840864,9410
6.841864,4721
6.842865,11650
6.843863,7265
6.844865,4769
6.845864,6049
6.846865,11042
6.847866,7041
6.848865,20565
6.849863,44138
6.850864,7473
6.851865,65535
6.852865,65535
6.853865,8194
6.854864,16420
6.855861,30903
6.856864,34904
6.857866,29879
6.858863,21221
6.859864,6721
6.860863,19172
6.861864,20356
6.862862,17124
6.863864,23045
6.864864,5505
6.865864,30055
6.866864,5937
6.867864,4865
6.868864,20885
6.869863,7473
6.870862,9186
6.871864,10290
6.872864,6865
6.873864,20581
6.874865,5409
6.875866,9730
6.876863,20228
6.877864,11602
6.878865,16051
6.879862,7137
6.880865,4705
6.881867,8994
6.882865,9426
6.883864,26438
6.884864,17892
6.885865,12435
6.886864,5201
6.887865,12114
6.888865,17924
6.889863,8177
6.890883,7921
6.891871,9186
6.892863,13779
6.893863,9090
6.894864,20356
6.895866,14755
6.896866,25830
6.897866,8065
6.898867,10642
6.899864,7825
6.900862,13875
6.901864,22277
6.902866,9250
6.903863,10642
6.904864,12771
6.905864,17748
6.906864,11794
6.907864,5121
6.908866,5409
6.909864,21253
6.910864,6929
6.911864,8129
6.912865,7745
6.913864,26454
6.914863,30343
6.915864,26854
6.916864,12242
6.917864,22661
6.918864,30775
6.919865,39209
6.920866,16772
6.921862,12899
6.922866,8274
6.923865,9938
6.924866,20629
6.925865,6865
6.926864,7601
6.927867,26918
6.928864,15363
6.929865,11586
6.930866,6801
6.931865,10882
6.932864,14867
6.933865,5073
6.934866,14675
6.935866,5665
6.936865,15059
6.937864,5425
6.938862,17380
6.939864,11586
6.940864,9490
6.941863,14147
6.942863,12899
6.943866,9778
6.944865,23685
6.945864,16051
6.946863,21349
6.947865,23589
6.948863,12002
6.949865,33704
6.950862,14211
6.951864,10018
6.952865,6321
6.953862,10610
6.954881,17508
6.955875,24325
6.956864,13539
6.957864,24598
6.958863,41226
6.959864,12643
6.960864,56045
6.961862,20436
6.962865,5857
6.963862,6577
6.964864,11058
6.965864,4785
6.966865,8498
6.967866,11042
6.968865,28086
6.969864,10370
6.970861,19156
6.971865,37385
6.972865,4673
6.973863,11858
6.974864,8898
6.975866,5009
6.976864,6657
6.977865,31015
7.133000,7937
7.133775,5169
7.134350,5873
7.134900,16163
7.135438,14851
7.136045,45899
7.136583,27174
7.137124,6993
7.137661,18084
7.138224,7185
7.138763,5185
7.139310,5841
7.139853,7841
7.140396,15059
7.140944,8017
7.141485,5857
7.142029,6913
7.142591,5713
7.143141,6433
7.143865,24293
7.144866,13651
7.145864,26326
7.146879,6401
7.147868,22533
7.148864,7969
7.149865,14259
7.150864,8770
7.151866,6913
7.152866,17172
7.153864,19748
7.154862,7841
7.155865,5937
7.156864,11986
7.157864,22805
7.158864,8033
7.159865,38521
7.160863,5169
7.161864,19540
7.162866,14659
7.163862,18372
7.164866,9106
7.165864,39065
7.166864,7761
7.167866,10722
7.168864,8145
7.169864,26118
7.170863,40953
7.171863,42426
7.172864,11554
7.173863,7857
7.174864,30631
7.175863,13043
7.176864,34696
7.177864,21413
7.178863,6017
7.179866,15107
7.180864,12451
7.181864,5185
7.182864,9042
7.183863,8354
7.184864,14211
7.185863,11234
7.186864,7345
7.187866,24982
7.188864,5281
7.189864,10386
7.190865,5281
7.191865,25814
7.192866,14355
7.193863,7425
7.194865,5153
7.195863,10450
7.196864,39865
7.197867,37273
7.198863,9026
7.199864,33640
7.200863,35864
7.201864,6321
7.202862,6321
7.203864,4977
7.204864,18692
7.205862,31575
7.206864,14387
7.207864,5729
7.208861,20517
7.209864,15763
7.210883,5537
7.211872,21141
7.212863,20100
7.213866,8786
7.214865,34632
7.215864,12819
7.216864,11378
7.217866,6609
7.218863,17172
7.219865,9874
7.220866,4849
7.221864,4865
7.222864,16820
7.223862,13491
7.224864,8626
7.225865,20629
7.226866,12339
7.227864,31159
7.228864,32535
7.229866,7057
7.230864,24742
7.231865,34840
7.232864,9570
7.233864,5505
7.234863,8962
7.235864,16211
7.236866,6545
7.237864,28903
7.238866,4913
7.239863,4993
7.240865,4769
7.241866,21829
7.242863,12723
7.243864,12114
7.244864,10690
7.245864,5649
7.246863,14851
7.247865,16820
7.248863,16035
7.249864,18900
7.250864,26022
7.251864,6737
7.252864,25510
7.253863,17828
7.254865,23813
7.255864,8930
7.256865,5281
7.257864,9778
7.258864,21637
7.259864,10162
7.260864,22949
7.261864,9442
7.262863,7729
7.263864,20100
7.264864,13651
7.265864,5185
7.266864,4961
7.267866,13139
7.268866,6993
7.269863,22981
7.270866,17620
7.271864,8210
7.272864,5041
7.273866,5569
7.274881,13587
7.275867,4833
7.276863,9986
7.277865,10082
7.278866,22725
7.279864,6625
7.280864,10946
7.281864,9314
7.282863,41482
7.283864,6065
7.284863,14467
7.285863,4753
7.286864,14099
7.287864,7617
7.288867,14035
7.289864,51628
7.290864,6817
7.291865,14435
7.292866,29447
7.293864,29207
7.294863,8610
7.295864,7441
7.296863,29431
7.297866,10706
7.298866,10834
7.299864,16740
7.300864,8738
7.301864,7489
7.302864,21829
7.303863,10882
7.304865,19316
7.305865,7329
7.306865,15075
7.307866,12355
7.308861,15267
7.309864,5089
7.310866,18612
7.311867,38793
7.312863,33432
7.313863,7505
7.314865,17604
7.315865,65535
7.316863,26294
7.317864,12082
7.318863,12515
7.319864,4801
7.320865,9522
7.321864,17364
7.322862,6273
7.323864,31863
7.478892,11426
7.479845,39833
7.480575,49836
7.481289,32007
7.481990,6033
7.482761,21669
7.483468,5377
7.484166,5665
7.484867,5345
7.485582,19188
7.486285,11570
7.486984,23909
7.487683,13635
7.488389,5601
7.489092,6737
7.489794,6417
7.490499,22101
7.491227,28118
7.491936,6721
7.492640,10338
7.493351,17588
7.494062,32087
7.494769,18356
7.495479,6609
7.496193,5633
7.496907,6305
7.497616,4929
7.498329,16788
7.499045,18708
7.499863,13667
7.500866,12515
7.501865,9426
7.502864,9346
7.503863,24085
7.504865,29495
7.505864,13059
7.506863,5089
7.507864,6577
7.508862,18308
7.509864,11714
7.510864,13251
7.511866,5409
7.512864,45467
7.513864,53485
7.514864,10962
7.515866,15603
7.516863,16131
7.517865,14963
7.518865,18308
7.519864,5393
7.520867,10722
7.521862,7777
7.522866,6321
7.523864,13987
7.524863,8322
7.525864,8177
7.526864,11810
7.527864,5073
7.528865,4993
7.529863,15171
7.530865,6625
7.531879,5457
7.532869,11954
7.533863,11330
7.534864,8290
7.535864,5537
7.536866,5297
7.537864,5937
7.538865,5009
7.539864,5169
7.540865,5089
7.541865,4865
7.542865,28855
7.543863,10066
7.544865,28775
7.545863,29719
7.546865,6785
7.547865,45915
7.548865,21013
7.549864,9026
7.550864,6657
7.551865,5697
7.552864,5809
7.553864,7265
7.554863,13123
7.555863,7041
7.556862,14883
7.557863,5633
7.558864,7729
7.559864,10098
7.560865,9442
7.561865,11794
7.562866,14819
7.563863,10578
7.564864,7425
7.565864,10210
7.566864,11986
7.567864,15139
7.568864,11282
7.569863,9458
7.570865,16660
7.571864,21461
7.572864,5649
7.573864,5473
7.574864,14291
7.575863,17252
7.576864,6113
7.577864,23285
7.578864,8466
7.579864,13731
7.580864,7953
7.581864,5393
7.582863,20148
7.583864,8274
7.584865,8530
7.585865,10082
7.586864,15059
7.587864,19684
7.588864,8770
7.589864,18580
7.590862,7105
7.591862,12995
7.592865,21909
7.593860,8418
7.594864,30519
7.595880,17636
7.596869,12499
7.597866,26582
7.598862,48811
7.599865,17956
7.600866,6545
7.601864,14643
7.602865,7713
7.603864,5313
7.604862,24886
7.605865,21637
7.606862,14643
7.607865,14531
7.608865,24774
7.609864,25686
7.610864,6593
7.611864,16275
7.612866,14723
7.613864,10834
7.614865,22693
7.615863,5697
7.616864,6977
7.617864,8882
7.618866,13795
7.619862,5425
7.620865,5361
7.621866,6593
7.622864,7905
7.623866,16980
7.624863,5729
7.625862,11138
7.626864,10770
7.627864,43802
7.628865,16404
7.629866,14147
7.630862,42170
7.631865,49420
7.632864,8177
7.633865,9874
7.634862,22053
7.635863,19060
7.636866,6561
7.637863,9346
7.638863,5249
7.639864,5025
7.640864,5505
7.641863,7905
7.642862,35816
7.643865,12082
7.644867,12018
7.655476,7249
7.655703,6033
7.655915,6337
7.656127,5969
7.656334,5777
7.656546,4657
7.656761,5665
7.656976,7201
7.657190,13059
7.657402,16740
7.657865,19732
7.658866,20725
7.659878,7745
7.660869,5969
7.661866,5441
7.662862,6705
7.663864,14883
7.664863,9410
7.665864,13395
7.666863,19588
7.667863,11554
7.668865,14995
7.669865,12979
7.670864,14419
7.671864,7553
7.784048,12226
7.784577,19476
7.784892,30215
7.785176,44330
7.785453,42506
7.785799,37513
7.786084,30695
7.786360,24565
7.786800,10130
7.787132,7681
7.787415,5809
7.787693,4993
7.787983,6609
7.788866,5425
7.789862,23477
7.790865,36840
7.791865,41754
7.792866,10882
7.793864,6449
7.794864,6785
7.795866,7985
7.796866,51164
7.797865,20917
7.798862,11170
7.799864,8338
7.800865,9506
7.801862,17748
7.802865,32135
7.803863,38329
7.804866,33992
7.805864,9426
7.806866,27462
7.807865,10722
7.808864,23733
7.809864,23781
7.810865,10450
7.811865,11298
7.812864,5969
7.813863,15523
7.814864,8177
7.815865,28807
7.816864,6049
7.817865,11922
7.818862,19124
7.819864,9698
7.820865,9858
7.821864,14099
7.822864,19396
7.823863,29655
7.824863,6337
7.825864,37721
7.826864,9346
7.827864,7441
7.828865,15155
7.829864,12835
7.830864,52636
7.831865,29607
7.832865,36264
7.833864,7649
7.834864,11618
7.835865,19508
7.836865,6225
7.837864,28118
7.838864,15779
7.839866,9906
7.840864,6257
7.841862,8290
7.842864,5345
7.843864,8177
7.844864,12755
7.845864,28214
7.846866,5425
7.847866,9122
7.848860,12210
7.849866,16035
7.850878,39513
7.851871,11858
7.852865,17972
7.853866,5505
7.854865,30103
7.855865,8962
7.856863,25702
7.857867,35976
7.858864,8530
7.859865,6769
7.860865,6929
7.861864,18772
7.862864,26278
7.863863,34888
7.864863,12178
7.865865,5201
7.866864,5441
7.867864,11794
7.868862,9410
7.869864,13475
7.870863,16291
7.871863,10578
7.872863,24085
7.873864,8530
7.874865,8242
7.875865,43386
7.876863,15155
7.877864,18260
7.878863,7809
7.879865,10722
7.880864,25414
7.881862,8530
7.882864,11794
7.883864,16788
7.884863,42298
7.885864,12226
7.886864,14595
7.887864,39929
7.888864,28086
7.889864,65535
7.890862,6609
7.891865,30487
7.892864,12723
7.893866,10578
7.894862,9314
7.895864,14403
7.896864,5921
7.897865,10770
7.898864,12979
7.899865,30935
7.900862,25094
7.901864,12899
7.902865,39593
7.903864,9314
7.904864,13379
7.905865,62383
7.906865,33496
7.907864,29607
7.908864,12034
7.909865,14867
7.910864,25046
7.911864,21125
7.912865,5585
7.913865,5185
7.914879,17828
7.915871,12050
7.916867,13523
7.917863,8242
7.918864,16884
7.919863,12226
7.920866,9026
7.921864,6289
7.922865,13715
7.923865,5857
7.924863,11938
7.925864,17892
7.926865,5473
7.927864,9090
7.928864,16067
7.929864,20805
7.930864,14403
7.931865,22213
7.932864,11010
7.933865,29767
7.934864,57454
7.935864,22661
7.936864,5809
7.937865,8914
7.938864,8177
7.939864,21173
7.940867,12274
7.941865,12291
7.942866,22341
7.943866,16259
7.944864,13187
7.945864,16211
7.946864,8498
7.947866,11314
7.948864,19604
7.949864,7009
7.950864,6033
7.951865,20196
7.952863,5617
7.953865,7825
7.954864,6881
7.955864,6561
7.956864,21813
7.957864,16420
7.958863,8177
7.959866,5969
7.960863,9714
7.961863,7521
7.962864,21973
7.963865,32423
7.964866,7073
7.965865,8994
7.966866,6065
7.967864,23717
7.968864,18836
7.969863,6561
7.970865,5761
7.971862,17476
7.972864,30663
7.973865,8466
7.974864,10578
8.139348,8258
8.140057,5505
8.140529,15491
8.140970,23509
8.141403,33544
8.141902,44986
8.142331,40841
8.142758,32856
8.143197,16259
8.143649,7105
8.144088,17732
8.144520,21141
8.144957,22373
8.145391,18980
8.145866,12066
8.146864,10194
8.147863,8466
8.148864,13635
8.149865,8322
8.150865,31911
8.151865,20116
8.152862,37737
8.153863,6961
8.154865,11890
8.155864,7105
8.156865,9394
8.157864,7073
8.158864,10194
8.159864,11778
8.160864,27686
8.161864,27190
8.162862,8274
8.163865,6433
8.164863,23733
8.165864,29559
8.166864,33832
8.167864,11266
8.168866,6737
8.169862,16804
8.170865,8194
8.171884,26822
8.172869,35976
8.173867,20116
8.174865,5377
8.175864,8546
8.176865,26022
8.177863,25174
8.178864,13443
8.179864,11330
8.180864,22149
8.181862,38873
8.182865,29543
8.183862,7473
8.184864,6225
8.185865,10514
8.186861,27286
8.187866,18628
8.188862,25830
8.189863,7473
8.190866,9218
8.191864,8194
8.192864,15091
8.193866,7921
8.194865,17476
8.195862,12595
8.196864,6033
8.197864,23125
8.198866,6369
8.199864,7905
8.200864,6705
8.201864,6401
8.202866,14387
8.203864,11474
8.204865,16916
8.205865,44282
8.206864,16211
8.207863,10002
8.208865,6449
8.209864,5841
8.210862,5457
8.211866,9506
8.212863,9010
8.213863,7233
8.214865,5633
8.215863,6161
8.216863,8642
8.217863,11042
8.218866,6209
8.219866,5633
8.220865,7089
8.221864,8978
8.222864,9266
8.223864,6497
8.224864,26902
8.225865,13827
8.226864,5681
8.227865,8514
8.228867,11298
8.229865,24117
8.230865,13251
8.231863,6865
8.232864,6113
8.233862,13235
8.234862,8434
8.235878,12595
8.236864,18404
8.237865,8290
8.238865,7857
8.239866,6161
8.240866,5521
8.241864,8770
8.242865,13971
8.243863,27286
8.244866,12755
8.245863,7249
8.246865,6577
8.247865,13155
8.248866,19588
8.249864,28390
8.250863,6673
8.251863,7761
8.252864,15123
8.253863,6321
8.254864,7905
8.255866,5537
8.256864,11954
8.257864,11346
8.258864,8370
8.259865,9730
8.260863,8498
8.261864,18228
8.262865,41002
8.263865,27142
8.264864,30647
8.265865,10514
8.266866,7169
8.267862,11522
8.268864,5185
8.269865,5777
8.270864,20613
8.271865,10338
8.272865,16131
8.273864,5777
8.274865,32391
8.275865,12547
8.276862,14531
8.277864,5985
8.278863,27398
8.279863,9154
8.280863,8482
8.281862,5649
8.282863,24085
8.283863,5841
8.284864,5777
8.285864,9618
8.286865,7409
8.287866,13091
8.288864,6273
8.289864,6945
8.290866,8690
8.291866,5889
8.292865,7137
8.293863,6097
8.294863,36616
8.295864,24565
8.296864,13763
8.297863,19348
8.298865,19924
8.299879,22677
8.300869,9026
8.301863,6033
8.302865,6561
8.303863,15059
8.304863,16692
8.305866,8866
8.306864,17588
8.307864,25926
8.308866,14835
8.309864,5873
8.310864,17492
8.311864,17044
8.312863,26806
8.313865,16131
8.314866,15075
8.315862,8930
8.316863,5841
8.317865,5697
8.318864,10882
8.319864,50956
8.320865,35816
8.321865,8994
8.322866,8386
8.323865,9138
8.324865,20725
8.325864,11970
8.326863,11954
8.327865,7425
8.328866,22309
8.329864,6321
8.330863,32663
8.483825,6769
8.484686,9394
8.485311,7089
8.485904,8386
8.486489,12563
8.487145,3168
8.487727,7713
8.488318,25430
8.488910,49644
8.489516,38297
8.490107,13587
8.490698,9650
8.491453,4689
8.492062,5713
8.492653,22869
8.493250,42186
8.493848,30231
8.494467,13779
8.495057,5937
8.495651,20276
8.496247,37513
8.496864,12467
8.497864,52268
8.498864,10050
8.499864,5633
8.500864,38233
8.501865,12819
8.502862,6289
8.503864,16051
8.504865,22885
8.505862,6225
8.506866,8386
8.507866,34120
8.508862,27734
8.509866,18228
8.510865,23749
8.511864,30951
8.512865,56685
8.513862,21893
8.514864,5905
8.515866,28502
8.516865,43866
8.517864,38089
8.518863,19460
8.519863,6065
8.520864,7857
8.521864,13507
8.522865,6625
8.523863,7233
8.524864,11330
8.525864,12643
8.526864,16227
8.527864,14547
8.528864,6577
8.529865,9458
8.530865,28310
8.531864,12323
8.532865,5969
8.533866,5761
8.534865,5393
8.535863,6753
8.536864,10978
8.537863,6801
8.538865,24117
8.539863,6913
8.540865,25606
8.541865,51948
8.542864,37929
8.543864,7121
8.544862,6433
8.545863,21573
8.546864,32808
8.547863,30695
8.548864,22053
8.549862,6305
8.550863,7505
8.551866,13251
8.552866,8914
8.553865,6161
8.554866,5697
8.555884,11282
8.556870,6657
8.557867,10626
8.558863,12066
8.559865,8370
8.560864,7073
8.561864,6593
8.562863,28759
8.563865,25862
8.564864,7041
8.565864,25254
8.566862,8177
8.567864,5825
8.568865,10162
8.569864,6417
8.570862,8386
8.571866,5713
8.572864,11074
8.573867,10690
8.574865,9010
8.575862,21205
8.576862,4945
8.577864,6145
8.578863,10258
8.579867,15379
8.580863,15747
8.581865,5553
8.582863,8962
8.583863,8210
8.584864,10130
8.585865,11106
8.586864,12114
8.587863,16948
8.588863,6273
8.589864,5585
8.590865,5473
8.591866,8722
8.592865,17412
8.593863,14499
8.594864,16708
8.595863,22693
8.596867,15555
8.597865,10002
8.598866,5505
8.599862,17236
8.600864,29895
8.601863,22485
8.602865,9666
8.603864,9602
8.604864,8177
8.605863,16612
8.606864,17924
8.607865,15763
8.608865,11026
8.609866,14115
8.610864,13843
8.611864,23685
8.612863,11026
8.613864,5841
8.614862,32695
8.615864,65535
8.616864,13875
8.617864,8802
8.618865,7713
8.619879,14483
8.620868,17924
8.621865,5793
8.622862,6801
8.623863,24598
8.624866,7681
8.625866,39897
8.626865,25414
8.627866,15299
8.628862,8866
8.629866,59566
8.630864,30871
8.631864,6465
8.632863,37097
8.633863,9090
8.634863,13059
8.635864,5665
8.636863,23333
8.637863,13011
8.638865,8994
8.639865,9074
8.640863,15123
8.641866,24565
8.642865,11458
8.643866,11394
8.644864,16436
8.645864,12483
8.646864,28967
8.647865,12771
8.648864,18308
8.649865,17188
8.650862,7489
8.651864,12787
8.652863,22485
8.653866,7009
8.654863,4657
8.655865,6033
8.656864,23525
8.657864,13395
8.658863,21605
8.659865,8962
8.660865,8626
8.661864,23717
8.662863,5585
8.663865,6273
8.664863,20997
8.665865,29127
8.666865,11138
8.667864,7041
8.668864,6177
8.669863,6193
8.670863,15747
8.671864,27654
8.672865,8706
8.673866,7889
8.674866,8802
8.831776,27846
8.832789,4993
8.833576,30583
8.834334,40105
8.835085,34664
8.835910,22917
8.836653,7265
8.837401,12595
8.838152,8161
8.838921,6657
8.839671,6657
8.840424,40201
8.841176,33048
8.841928,6337
8.842677,24918
8.843435,18084
8.844187,5265
8.844965,11298
8.845716,8722
8.846472,5825
8.847231,10594
8.847990,22485
8.848742,15859
8.849505,13011
8.850264,8594
8.851023,10754
8.851785,28134
8.852548,37545
8.853310,23477
8.854072,8834
8.854833,16083
8.855595,27830
8.856362,9554
8.857165,3856
8.857928,10610
8.858865,10274
8.859865,17972
8.860865,12563
8.861865,5569
8.862864,24982
8.863865,29607
8.864867,9426
8.865867,7153
8.866864,36840
8.867864,19092
8.868865,8786
8.869863,10050
8.870866,8706
8.871866,10242
8.872864,23269
8.873864,7441
8.874888,15155
8.875868,15683
8.876866,14483
8.877864,5905
8.878866,20196
8.879864,17188
8.880865,29559
8.881865,21077
8.882864,28951
8.883864,11058
8.884865,7745
8.885863,8242
8.886864,14739
8.887863,5137
8.898106,28839
8.898335,34968
8.898546,34568
8.898753,23701
8.898963,7921
8.899173,12899
8.899381,23109
8.899590,36360
8.899810,46299
8.900029,44874
8.900865,15171
8.901863,11554
8.902864,5281
8.903864,5617
8.904863,14083
8.905866,8962
8.906864,27254
8.907865,11362
8.908863,17012
8.909865,30951
8.910864,49244
8.911864,8466
8.912864,9826
8.913864,9234
8.914862,14675
8.915864,18164
8.916865,11842
8.917865,4641
8.918866,9266
8.919865,13219
8.920864,4337
8.921864,8690
8.922864,7473
8.923863,17796
8.924864,6401
8.925864,11394
8.926864,6961
8.927864,8866
8.928864,7777
8.929863,14691
8.930865,6177
8.931865,23765
8.932867,7377
8.933864,22933
8.934866,16211
8.935863,49548
8.936863,30391
8.937864,10626
8.938885,7985
8.939869,5937
8.940865,25654
8.941864,18276
8.942865,5841
8.943864,5281
8.944864,11906
8.945864,22789
8.946865,29671
8.947864,40537
8.948863,6913
8.949864,16388
8.950865,65535
8.951864,44074
8.952865,35256
8.953863,30535
8.954865,4417
8.955864,20436
8.956865,6545
8.957864,5169
8.958866,4865
8.959862,12643
8.960865,36136
8.961864,9762
8.962864,12307
8.963864,18644
8.964864,10722
8.965862,25414
8.966864,31943
8.967866,11330
8.968864,22981
8.969864,4353
8.970866,11954
8.971864,8177
8.972866,12579
8.973865,8834
8.974865,17620
8.975864,4785
8.976863,22245
8.977863,10562
8.978864,6801
8.979862,6865
8.980864,7073
8.981863,6833
8.982864,27158
8.983866,12114
8.984863,13763
8.985864,6065
8.986866,6049
8.987864,30647
8.988864,39465
8.989864,14611
8.990863,26150
8.991865,28486
8.992864,13379
8.993865,20709
8.994866,21477
8.995864,4481
8.996864,18116
8.997866,15155
8.998861,31847
8.999864,44554
9.000864,49067
9.001865,30359
9.002885,12755
9.003869,31399
9.004865,49228
9.005864,65535
9.006865,61134
9.007864,5393
9.008864,39833
9.009864,22661
9.010864,10594
9.011864,17636
9.012864,11090
9.013864,10722
9.014864,26502
9.015866,23701
9.016866,5521
9.017865,4401
9.018863,22709
9.019865,6673
9.020864,9314
9.021864,9794
9.022864,6417
9.023864,16227
9.024863,29415
9.143961,5697
9.144551,9522
9.144932,6865
9.145281,5137
9.145619,5601
9.146030,8946
9.146368,13443
9.146712,23349
9.147053,31639
9.147413,27798
9.147753,15187
9.148098,10898
9.148440,6737
9.148865,4785
9.149862,8498
9.150864,4993
9.151866,21061
9.152864,20228
9.153864,11410
9.154864,17364
9.155864,29191
9.156865,17364
9.157863,8978
9.158865,14803
9.159863,12002
9.160866,6321
9.161863,10514
9.162866,24037
9.163866,27190
9.164864,18052
9.165864,8898
9.166867,23941
9.167864,5377
9.168865,7953
9.169865,9826
9.170864,4497
9.171864,4913
9.172863,16115
9.173863,7777
9.174864,15571
9.175864,13155
9.176863,10082
9.177866,5409
9.178863,5281
9.179864,4785
9.180864,9234
9.181865,9154
9.182866,10450
9.183864,10434
9.184863,8370
9.185864,10162
9.186863,22245
9.187866,42698
9.188865,5345
9.189866,4929
9.190864,4785
9.191864,5601
9.192864,8001
9.193864,4929
9.194865,6465
9.195885,22997
9.196871,8546
9.197867,19524
9.198866,7441
9.199863,22549
9.200862,19220
9.201866,8594
9.202864,9666
9.203864,6785
9.204862,7665
9.205865,7985
9.206866,17540
9.207866,20581
9.208864,7505
9.209865,4769
9.210865,16019
9.211863,9442
9.212865,37385
9.213865,25878
9.214864,6097
9.215863,8898
9.216865,5441
9.217864,7585
9.218865,10722
9.219864,10498
9.220863,4481
9.221866,19668
9.222864,7073
9.223866,4913
9.224862,4753
9.225864,15763
9.226864,18100
9.227865,16724
9.228864,14419
9.229865,6241
9.230864,4689
9.231866,37369
9.232864,19588
9.233864,5409
9.234864,7089
9.235863,4865
9.236864,7457
9.237864,8578
9.238864,11154
9.239864,12931
9.240864,16019
9.241865,9298
9.242865,30823
9.243863,6273
9.244866,11698
9.245862,6609
9.246864,12723
9.247864,9410
9.248864,27302
9.249863,8514
9.250865,6369
9.251865,8145
9.252863,5041
9.253864,23045
9.254863,53052
9.255862,8738
9.256862,19220
9.257865,15379
9.258864,7393
9.259879,7185
9.260867,14611
9.261864,23349
9.262864,8081
9.263864,5425
9.264865,6545
9.265864,11058
9.266866,20837
9.267864,8578
9.268866,4945
9.269865,11410
9.270865,5809
9.271866,14691
9.272865,10562
9.273865,16436
9.274866,21477
9.275862,10834
9.276864,15443
9.277862,34888
9.278864,24293
9.279863,21605
9.280864,12867
9.281865,10626
9.282867,5921
9.283865,4897
9.284866,10818
9.285866,15187
9.286866,7473
9.287864,9346
9.288865,9442
9.289864,8786
9.290866,8290
9.291865,5665
9.292865,6065
9.293863,8530
9.294864,6945
9.295864,13667
9.296864,10674
9.297863,25782
9.298864,23381
9.299864,19012
9.300865,12947
9.301863,27414
9.302864,31287
9.303864,4769
9.304861,24085
9.305863,11314
9.306864,26182
9.307864,6801
9.308865,8306
9.309864,5073
9.310862,34568
9.311864,8177
9.312864,8818
9.313864,8210
9.314863,10418
9.315863,14979
9.316865,10082
9.317864,12403
9.318864,14803
9.319865,11858
9.320864,7441
9.321862,13651
9.322863,11266
9.323881,5905
9.324869,10402
9.325864,5521
9.326866,24565
9.327864,19284
9.328864,7377
9.329864,32023
9.330864,6081
9.331864,14803
9.332862,18212
9.333865,5073
9.334864,15859
9.490517,16740
9.491281,7217
9.491806,13987
9.492313,18244
9.492806,8354
9.493371,9314
9.493870,7505
9.494360,4945
9.494858,7233
9.495372,8001
9.495869,8546
9.496362,12258
9.496865,19204
9.497362,19780
9.497868,17604
9.498363,17156
9.498866,21925
9.499863,13027
9.500865,5137
9.501864,34744
9.502864,34120
9.503863,5281
9.504864,21173
9.505862,12162
9.506863,4897
9.507863,8370
9.508862,5313
9.509863,5793
9.510865,19284
9.511863,9042
9.512865,15731
9.513863,7521
9.514889,23973
9.515873,30119
9.516867,4929
9.517865,7681
9.518862,12467
9.519864,6849
9.520866,5809
9.521866,5265
9.522864,12771
9.523864,8978
9.524864,23493
9.525864,11458
9.526864,10354
9.527864,5009
9.528864,6273
9.529866,6817
9.530865,17380
9.531864,6209
9.532865,13507
9.533864,8786
9.534864,19748
9.535863,14179
9.536863,9218
9.537865,10658
9.538864,5057
9.539866,7761
9.540862,8786
9.541864,6401
9.542863,12963
9.543867,8194
9.544863,6657
9.545865,13091
9.546864,23413
9.547864,4737
9.548864,4929
9.549864,7601
9.550865,5249
9.551864,10530
9.552865,8354
9.553864,10178
9.554864,10914
9.555864,12675
9.556862,5537
9.557865,8177
9.558865,12291
9.559864,11970
9.560865,4801
9.561862,20324
9.562864,24662
9.563863,37065
9.564865,14915
9.565864,6337
9.566865,10994
9.567862,14339
9.568864,12274
9.569865,22453
9.570865,13987
9.571866,19284
9.572864,35560
9.573863,29639
9.574863,7809
9.575865,14275
9.576864,25446
9.577865,28454
9.578886,17188
9.579866,13811
9.580866,21029
9.581864,11362
9.582864,5153
9.583864,8994
9.584864,16868
9.585864,30759
9.586865,12755
9.587865,4929
9.588865,4865
9.589865,7857
9.590864,17444
9.591862,6193
9.592864,10050
9.593864,5905
9.594863,13507
9.595866,25910
9.596865,30423
9.597864,10578
9.598864,8081
9.599865,23717
9.600865,16980
9.601864,6465
9.602861,47291
9.603865,20677
9.604865,9986
9.605864,9538
9.606864,5521
9.607864,12979
9.608864,8306
9.609864,9698
9.610863,4817
9.611866,4769
9.612864,24806
9.613864,41034
9.614864,34344
9.615863,15555
9.616865,9138
9.617863,13091
9.618862,13571
9.619862,17972
9.620862,18404
9.621864,10402
9.622867,14547
9.623866,4817
9.624864,19876
9.625864,19044
9.626864,10322
9.627863,13731
9.628864,22997
9.629864,7377
9.630864,12963
9.631865,36552
9.632864,18068
9.633863,17700
9.634865,17252
9.635862,8113
9.636865,6401
9.637863,50412
9.638864,30423
9.639865,7681
9.640864,15315
9.641866,9618
9.642879,37209
9.643871,37417
9.644865,7809
9.645865,6545
9.646865,16388
9.647863,9762
9.648864,12226
9.649863,13235
9.650865,9282
9.651862,4817
9.652863,7361
9.653864,16740
9.654863,14643
9.655865,8177
9.656865,11538
9.657865,4545
9.658862,8290
9.659864,6145
9.660866,13155
9.661864,28855
9.662864,6305
9.663864,6849
9.664864,20420
9.665864,6833
9.666865,4785
9.667864,24630
9.668864,24325
9.669864,9218
9.670865,5217
9.671863,13699
9.672865,58510
9.673862,24005
9.674864,24886
9.675864,12883
9.676863,22405
9.677864,18116
9.678864,20629
9.679865,17844
9.680864,10690
9.681863,7393
9.835316,5921
9.836218,10434
9.836893,13539
9.837548,10930
9.838197,10722
9.838910,6721
9.839555,6049
9.840202,8738
9.840852,7297
9.841517,12931
9.842169,3024
9.842817,10386
9.843467,19252
9.844122,13187
9.844770,5281
9.845431,8081
9.846086,8770
9.846759,6993
9.847415,5153
9.848070,5681
9.848719,6609
9.849375,5649
9.850032,7489
9.850864,8834
9.851866,6241
9.852866,24806
9.853862,27318
9.854864,7409
9.855864,22853
9.856865,9522
9.857863,9858
9.858864,8177
9.859864,6961
9.860864,11666
9.861865,25446
9.862864,11330
9.863864,9458
9.864864,39449
9.865865,30775
9.866864,8402
9.867866,16580
9.868863,7985
9.869864,15779
9.870866,20869
9.871863,5361
9.872863,13315
9.873863,11890
9.874865,11874
9.875864,5505
9.876866,16179
9.877865,7329
9.878864,19156
9.879866,6785
9.880865,9010
9.881864,9346
9.882864,9490
9.883863,6097
9.884866,19668
9.885863,6289
9.886864,42954
9.887864,43754
9.888866,8322
9.889863,8930
9.890863,5185
9.891864,16548
9.892865,12371
9.893864,13331
9.894864,8834
9.895862,12819
9.896865,23189
9.897866,14115
9.898865,15411
9.899879,6561
9.900871,9826
9.901866,5041
9.902868,7649
9.903864,16676
9.904862,15123
9.905863,9266
9.906864,8306
9.907865,6065
9.908866,5201
9.909864,9730
9.910865,5041
9.911865,5201
9.912863,11218
9.913864,13059
9.914866,16275
9.915864,6065
9.916864,8145
9.917866,7745
9.918864,9154
9.919864,9698
9.920864,11442
9.921863,17828
9.922865,14979
9.923864,14067
9.924864,21973
9.925865,30887
9.926864,24565
9.927864,5841
9.928866,25350
9.929863,11858
9.930864,6289
9.931863,7937
9.932864,11362
9.933865,5969
9.934864,11218
9.935864,6193
9.936864,21205
9.937866,12707
9.938864,6145
9.939866,6721
9.940864,11234
9.941863,13635
9.942866,11266
9.943864,5169
9.944863,5185
9.945863,12627
9.946866,6929
9.947864,5377
9.948864,20452
9.949866,14595
9.950864,6753
9.951866,5185
9.952863,13395
9.953864,23813
9.954864,16580
9.955864,4993
9.956862,7329
9.957865,4897
9.958865,5521
9.959863,5217
9.960864,6289
9.961862,7633
9.962865,18996
9.963877,6273
9.964866,7825
9.965864,26326
9.966865,39481
9.967864,19972
9.968862,10450
9.969864,11698
9.970862,19236
9.971864,59598
9.972864,40793
9.973865,12611
9.974865,11426
9.975863,12627
9.976864,8354
9.977864,10514
9.978864,5457
9.979864,5265
9.980864,7761
9.981865,6321
9.982866,7745
9.983867,11618
9.984865,11314
9.985862,8482
9.986864,7473
9.987864,9890
9.988866,11442
9.989864,9762
9.990863,6321
9.991866,11618
9.992865,5665
9.993863,7697
9.994864,16003
9.995865,49948
9.996864,5473
9.997865,8706
9.998866,24614
9.999865,16484
10.000865,21829
10.002611,0
10.003522,4785
10.004294,5473
10.005042,5985
10.005866,7745
10.006864,7041
10.007864,36136
10.008863,5985
10.009867,8065
10.010864,11922
10.011864,12515
10.012865,4929
10.013865,6641
10.014863,29479
10.015864,13635
10.016863,7969
10.017865,6449
10.018865,45835
10.019864,33624
10.020865,14979
10.021866,8930
10.022864,13187
10.023864,8097
10.024867,12931
10.025864,7009
10.026865,5201
10.140045,25670
10.141115,6961
10.141966,37945
10.142778,37033
10.143594,5313
10.144483,8177
10.145293,6401
10.146103,5377
10.146918,9618
10.147750,4849
10.148563,15171
10.149378,17380
10.150194,5857
10.151008,11026
10.158464,11298
10.158716,9666
10.158954,7153
10.159181,5105
10.159390,7985
10.159601,10082
10.159817,13571
10.160032,16852
10.160251,17556
10.160472,21925
10.160865,20228
10.161865,10434
10.162864,5729
10.163864,9634
10.164864,16339
10.165866,11506
10.166866,5201
10.167861,7505
10.168866,15667
10.169862,6193
10.170864,22757
10.171863,24726
10.172864,10098
10.173864,23749
10.174866,57502
10.175864,22597
10.176865,23573
10.177862,49852
10.178864,46619
10.179866,5185
10.180864,19108
10.181864,14435
10.182865,5665
10.183865,16323
10.184866,17924
10.185865,15187
10.186863,8610
10.187864,5601
10.188864,6657
10.189864,7569
10.190864,5281
10.191865,6465
10.192863,5153
10.193864,7169
10.194864,8562
10.195863,6225
10.196863,6273
10.197866,8017
10.198864,7457
10.199863,5169
10.200865,5569
10.201864,8402
10.202865,5601
10.203862,19012
10.204864,15363
10.205864,13059
10.206864,6449
10.207864,20773
10.208866,26902
10.209864,8594
10.210864,7505
10.211864,10642
10.212864,8017
10.213864,7345
10.214865,9266
10.215862,5537
10.216863,8097
10.217864,5073
10.218864,4945
10.219882,10578
10.220868,7585
10.221862,11490
10.222864,30807
10.223864,23237
10.224865,8290
10.225866,9090
10.226865,9954
10.227865,7905
10.228864,11650
10.229865,9298
10.230864,7073
10.231862,17444
10.232866,18980
10.233867,12643
10.234866,5953
10.235862,7249
10.236863,17876
10.237863,31303
10.238866,13075
10.239864,8226
10.240863,9522
10.241864,6625
10.242863,5953
10.243866,7089
10.244865,9650
10.245864,43594
10.246864,65535
10.247863,13555
10.248863,27318
10.249864,65535
10.250863,54989
10.251865,7937
10.252865,9298
10.253866,10962
10.254865,9666
10.255864,8177
10.256863,5841
10.257862,5953
10.258863,6129
10.259865,7121
10.260865,12707
10.261863,12835
10.262864,6705
10.263864,26550
10.264865,29623
10.265864,16227
10.266864,11362
10.267864,24197
10.268864,28727
10.269866,24389
10.270863,14339
10.271863,6913
10.272865,13123
10.273865,6065
10.274865,16996
10.275863,9154
10.276863,6225
10.277864,23781
10.278862,30727
10.279862,26534
10.280865,8434
10.281864,21781
10.282863,8177
10.283881,8994
10.284871,5521
10.285866,13411
10.286865,20036
10.287866,17364
10.288864,17492
10.289864,8097
10.290861,14547
10.291864,7953
10.292863,6593
10.293863,5169
10.294865,6177
10.295863,7969
10.296865,6481
10.297864,10882
10.298864,6321
10.299864,25638
10.300866,7361
10.301866,9026
10.302865,15795
10.303866,5681
10.304864,49692
10.305863,20324
10.306866,7969
10.307864,9042
10.308863,28679
10.309864,6369
10.310864,12835
10.311865,8129
10.312864,8834
10.313863,18308
10.314864,25526
10.315864,16964
10.316863,25622
10.317864,18404
10.318863,44554
10.319864,61951
10.320865,57518
10.321862,6625
10.322865,10658
10.323866,6593
10.324865,8626
10.325863,5729
10.326864,8338
10.327867,20821
10.328864,6033
10.329864,14995
10.330865,7169
10.331862,10962
10.332866,6049
10.333864,5473
10.334866,5537
10.335865,9250
10.502898,10546
10.503525,7841
10.503931,8530
10.504312,6353
10.504685,5793
10.505134,5297
10.505507,6625
10.505888,6913
10.506261,9570
10.506655,15955
10.507035,17668
10.507413,11202
10.507792,5761
10.508176,3552
10.508866,12050
10.509862,6737
10.510865,5441
10.511864,9666
10.512867,9122
10.513863,8258
10.514864,8081
10.515864,5297
10.516864,5409
10.517865,7841
10.518864,6657
10.519864,6881
10.520864,6721
10.521863,7633
10.522864,24565
10.523865,12835
10.524865,6401
10.525863,9362
10.526864,8177
10.527863,15251
10.528864,14179
10.529864,9570
10.530866,7057
10.531864,5601
10.532864,7697
10.533866,16307
10.534864,7345
10.535866,6161
10.536863,5585
10.537865,8177
10.538866,6177
10.539885,5377
10.540868,6705
10.541864,9618
10.542864,11842
10.543864,6033
10.544864,5601
10.545865,6209
10.546862,7425
10.547863,9698
10.548865,9570
10.549864,6913
10.550862,5569
10.551864,7137
10.552864,5201
10.553864,5569
10.554865,5777
10.555863,9778
10.556865,6017
10.557862,5921
10.558864,7713
10.559864,11538
10.560864,12114
10.561864,6097
10.562865,6177
10.563864,5297
10.564866,7329
10.565863,7889
10.566865,5825
10.567862,5473
10.568862,5681
10.569864,5425
10.570864,7345
10.571866,5585
10.572864,5441
10.573865,5473
10.574865,5345
10.575864,5953
10.576864,5665
10.577865,6609
10.578866,7681
10.579864,7233
10.580863,6289
10.581864,7729
10.582863,7985
10.583864,5857
10.584863,7793
10.585865,6113
10.586864,7713
10.587864,5761
10.588864,5249
10.589862,6577
10.590865,8177
10.591865,6753
10.592864,6433
10.593861,5153
10.594865,6961
10.595864,8145
10.596866,6657
10.597866,5473
10.598863,6241
10.599866,6209
10.600866,7281
10.601865,5329
10.602864,8113
10.603881,4529
10.604872,8578
10.605866,6497
10.606865,10722
10.607865,13843
10.608865,5969
10.609864,9554
10.610864,6753
10.611864,5809
10.612862,5345
10.613865,4881
10.614863,5201
10.615864,5569
10.616864,5793
10.617865,8898
10.618864,6673
10.619865,5201
10.620864,5185
10.621865,7521
10.622865,5457
10.623864,5377
10.624864,7089
10.625865,9666
10.626864,6177
10.627864,6049
10.628864,5457
10.629864,5473
10.630864,9170
10.631866,5201
10.632864,4993
10.633865,5585
10.634866,7473
10.635864,12995
10.636866,9954
10.637864,5377
10.638864,8258
10.639863,12483
10.640866,6625
10.641863,4577
10.642867,4753
10.643864,5217
10.644862,5649
10.645866,6065
10.646864,8033
10.647863,6673
10.648866,5057
10.649865,4897
10.650864,5777
10.651863,5073
10.652862,6673
10.653865,5553
10.654865,5697
10.655864,7265
10.656862,4961
10.657865,6369
10.658865,6337
10.659864,7313
10.660864,6353
10.661864,5777
10.662866,5697
10.663865,5153
10.664864,8674
10.665864,8177
10.666862,5169
10.667878,4401
10.668871,5601
10.669867,4849
10.670867,5089
10.671865,9106
10.672867,5409
10.673865,10754
10.674863,5153
10.675864,11138
10.676865,7889
10.677864,6065
10.678865,5601
10.679864,6273
10.680866,5121
10.681863,6449
10.682862,5345
10.683866,5089
10.684863,7841
10.685864,5505
10.686863,7057
10.687863,5473
10.688865,7169
10.689862,4913
10.690864,5249
10.691866,4945
10.692864,5153
10.693865,6097
10.853214,6529
10.854018,5345
10.854572,4705
10.855102,4273
10.855627,4449
10.856223,6401
10.856750,5681
10.857280,5665
10.857809,5617
10.858367,6241
10.858895,5505
10.859550,5537
10.860098,5281
10.860628,4561
10.861163,4657
10.861694,4977
10.862230,7521
10.862863,6225
10.863864,6529
10.864864,6337
10.865865,8658
10.866866,6065
10.867864,6097
10.868865,5505
10.869866,6545
10.870864,7873
10.871866,5057
10.872865,4929
10.873864,6225
10.874864,5025
10.875863,7105
10.876865,5921
10.877863,5681
10.878864,5169
10.879864,5041
10.880864,5585
10.881864,5105
10.882864,5153
10.883864,8177
10.884862,8482
10.885864,6817
10.886866,6497
10.887861,5969
10.888863,11282
10.889864,6353
10.890864,5217
10.891865,7041
10.892866,6705
10.893863,5585
10.894864,5537
10.895864,5377
10.896864,6545
10.897863,4385
10.898862,5425
10.899863,5697
10.900863,5009
10.901864,4913
10.902864,7745
10.903863,5169
10.904864,6737
10.905865,5393
10.906864,5217
10.907866,6209
10.908866,4897
10.909864,6305
10.910863,5857
10.911866,5489
10.912863,6033
10.913864,5553
10.914864,5457
10.915865,5521
10.916864,6433
10.917864,5681
10.918863,5697
10.919865,5649
10.920865,7393
10.921862,10546
10.922864,5441
10.923884,6945
10.924867,7089
10.925864,7297
10.926864,5265
10.927865,5553
10.928864,5649
10.929865,4785
10.930862,5729
10.931866,5153
10.932866,7457
10.933866,5345
10.934863,5281
10.935865,5169
10.936864,5697
10.937864,5985
10.938866,13235
10.939862,8770
10.940863,16724
10.941864,7633
10.942864,6321
10.943865,5089
10.944862,6337
10.945863,6273
10.946864,5857
10.947862,6801
10.948864,5681
10.949865,5201
10.950864,5185
10.951865,5217
10.952866,5121
10.953864,6273
10.954866,5409
10.955863,5041
10.956865,5329
10.957865,7329
10.958866,6193
10.959864,5937
10.960866,5137
10.961863,6913
10.962863,6433
10.963863,5601
10.964865,5057
10.965865,6529
10.966864,5649
10.967863,5505
10.968866,6241
10.969864,5825
10.970862,5217
10.971864,5377
10.972865,5201
10.973863,6705
10.974863,7633
10.975863,5297
10.976865,5665
10.977865,4225
10.978865,5121
10.979863,9154
10.980863,6721
10.981863,6321
10.982864,4993
10.983864,5937
10.984864,4865
10.985867,7409
10.986863,4945
10.987879,4721
10.988870,6449
10.989865,8210
10.990866,5825
10.991865,5457
10.992864,5217
10.993864,5825
10.994865,5073
10.995864,5409
10.996864,5729
10.997864,7121
10.998864,6657
10.999864,7249
11.000864,5009
11.001864,6433
11.002862,7409
11.003861,4641
11.004864,5057
11.005865,5153
11.006864,5089
11.007862,8033
11.008864,6577
11.009864,5761
11.010866,5329
11.011864,6177
11.012862,5633
11.013865,6209
11.014863,9154
11.015865,5137
11.016864,8177
11.017866,5297
11.018864,7873
11.019864,5249
11.020864,7009
11.021865,5809
11.022864,7041
11.023866,4913
11.024865,5041
11.025864,4289
11.026864,5185
11.027863,6177
11.028864,6465
11.029864,6433
11.030863,5777
11.031862,5473
11.032866,5873
11.033864,6465
11.034864,5505
11.035863,5921
11.036864,10786
11.037864,7217
11.038863,7329
11.039864,5009
11.040864,9026
11.041864,5841
11.042864,6113
11.043866,5041
11.044863,6209
11.195289,7985
11.196229,8802
11.196944,5585
11.197632,5073
11.198315,5537
11.199068,5457
11.199748,4817
11.200434,4113
11.201118,5217
11.201815,6609
11.202509,5329
11.203195,4129
11.203877,4241
11.204561,6033
11.205251,6337
11.205938,5681
11.206622,5569
11.207336,3904
11.208020,6209
11.208705,4273
11.209398,4961
11.210090,6305
11.210777,7185
11.211469,5985
11.212163,4048
11.212864,5329
11.213865,5505
11.214864,7089
11.215864,7057
11.216864,5297
11.217862,4113
11.218864,5441
11.219864,5009
11.220865,5153
11.221863,7009
11.222864,5201
11.223866,8930
11.224864,4737
11.225862,6881
11.226863,7265
11.227863,6225
11.228865,5025
11.229864,6881
11.230865,5665
11.231864,4993
11.232865,5329
11.233867,4673
11.234863,4961
11.235862,6657
11.236863,6113
11.237864,5201
11.238863,5729
11.239864,5217
11.240865,5201
11.241862,4225
11.242864,5249
11.243885,5601
11.244870,5089
11.245868,5185
11.246865,7569
11.247866,7233
11.248865,7009
11.249864,4897
11.250863,4273
11.251865,5025
11.252863,6353
11.253864,5537
11.254865,5553
11.255866,6193
11.256863,7201
11.257863,4881
11.258864,4801
11.259865,5249
11.260863,7233
11.261864,4929
11.262864,4593
11.263864,5825
11.264866,6673
11.265864,6769
11.266864,4865
11.267865,6097
11.268865,5921
11.269866,5265
11.270866,5425
11.271864,5777
11.272864,4673
11.273864,4929
11.274865,6753
11.275864,8177
11.276864,5265
11.277866,5697
11.278863,4961
11.279866,4833
11.280864,5009
11.281864,5857
11.282865,5665
11.283864,5665
11.284864,4305
11.285867,6481
11.286864,7681
11.287864,4945
11.288864,5009
11.289864,4385
11.290867,6065
11.291863,5185
11.292864,3984
11.293864,4529
11.294863,4769
11.295864,6817
11.296865,4865
11.297864,4609
11.298864,5137
11.299865,7137
11.300863,5265
11.301865,6081
11.302864,5537
11.303864,5457
11.304864,5057
11.305864,5009
11.306865,7985
11.307883,5409
11.308865,5297
11.309865,6353
11.310866,6785
11.311864,7713
11.312863,4433
11.313864,8033
11.314864,5585
11.315865,8065
11.316864,5297
11.317864,4225
11.318865,4945
11.319864,4080
11.320864,4737
11.321864,4353
11.322865,6241
11.323863,4016
11.324865,5505
11.325865,5921
11.326865,5153
11.327863,3936
11.328865,5441
11.329864,6897
11.330867,10578
11.331865,5505
11.332865,5201
11.333864,4097
11.334867,7521
11.335865,5297
11.336864,4225
11.337863,5009
11.338865,5505
11.339864,4273
11.340866,5377
11.341864,5041
11.342864,5857
11.343862,5041
11.344865,4801
11.345866,4945
11.346864,7009
11.347864,6961
11.348865,5089
11.349864,4145
11.350864,4721
11.351862,4032
11.352865,5041
11.353865,6625
11.354864,6849
11.355863,6465
11.356863,4305
11.357864,4257
11.358863,5937
11.359864,5393
11.360864,5665
11.361864,5009
11.362862,5921
11.363866,5761
11.364862,3904
11.365866,7105
11.366865,4833
11.367866,6481
11.368864,6145
11.369864,8177
11.370864,4129
11.371876,5697
11.372865,4641
11.373864,8177
11.374866,5153
11.375864,4881
11.376864,4481
11.377864,6417
11.378864,6961
11.379864,3968
11.380864,9570
11.381865,5777
11.382865,4593
11.383864,5345
11.384864,4513
11.385864,6353
11.386865,5425
11.510718,4385
11.511229,6321
11.511502,5249
11.511749,5025
11.512001,4961
11.512266,4241
11.512505,4737
11.512744,5265
11.512993,5201
11.513256,4513
11.513499,6065
11.513866,7713
11.514865,5505
11.515865,3856
11.516864,5505
11.517866,4913
11.518866,4353
11.519864,5217
11.520864,3968
11.521864,5505
11.522862,4113
11.523865,7505
11.524864,5585
11.525863,5729
11.526862,6097
11.527864,4625
11.528864,4529
11.529864,4305
11.530863,5713
11.531862,4497
11.532862,4385
11.533864,4193
11.534863,3840
11.535863,4529
11.536863,6641
11.537865,6081
11.538863,4048
11.539864,7473
11.540864,6753
11.541863,4561
11.542865,4849
11.543866,4193
11.544865,4769
11.545863,5393
11.546866,4593
11.547864,6369
11.548864,4897
11.549865,5409
11.550864,5153
11.551864,3808
11.552864,4241
11.553866,3808
11.554865,3760
11.555864,4129
11.556866,5649
11.557864,9762
11.558864,5697
11.559861,5425
11.560863,4289
11.561865,4817
11.562862,4225
11.563885,4289
11.564869,5761
11.565866,4465
11.566865,3920
11.567865,4609
11.568866,5521
11.569865,5201
11.570864,4129
11.571865,4225
11.572864,4129
11.573864,6369
11.574864,5569
11.575864,5073
11.576863,4753
11.577864,5937
11.578864,6369
11.579865,4193
11.580862,4785
11.581864,4209
11.582862,4833
11.583863,3824
11.584865,5137
11.585864,4657
11.586863,8898
11.587864,4177
11.588866,6177
11.589864,5009
11.590865,3904
11.591862,4209
11.592865,4273
11.593865,3904
11.594864,4369
11.595865,4305
11.596864,5409
11.597862,4705
11.598865,5185
11.599864,7457
11.600864,5729
11.601864,6625
11.602863,5377
11.603863,8177
11.604863,3776
11.605864,5441
11.606864,7425
11.607866,4032
11.608865,4353
11.609866,4945
11.610865,7425
11.611864,4801
11.612864,4129
11.613865,4145
11.614864,4801
11.615865,3776
11.616864,3744
11.617864,6049
11.618865,4673
11.619864,5521
11.620864,3584
11.621864,3664
11.622866,6049
11.623864,6161
11.624865,4433
11.625864,5041
11.626866,5345
11.627880,4289
11.628871,5425
11.629865,5041
11.630864,3968
11.631866,4433
11.632864,4225
11.633862,5553
11.634864,6065
11.635865,3712
11.636863,4129
11.637864,7553
11.638864,5313
11.639865,5009
11.640865,3920
11.641865,3744
11.642864,4161
11.643863,5441
11.644864,4064
11.645864,6481
11.646864,5777
11.647863,4209
11.648864,5377
11.649865,7089
11.650862,4032
11.651864,7041
11.652864,5569
11.653864,5361
11.654864,8914
11.655864,5473
11.656864,6753
11.657863,5089
11.658865,4481
11.659864,4689
11.660864,4737
11.661864,3968
11.662863,5793
11.663864,4561
11.664865,5233
11.665862,4561
11.666865,6689
11.667864,8113
11.668864,4529
11.669864,6241
11.670866,3984
11.671864,4032
11.672865,4080
11.673864,3984
11.674864,4000
11.675865,4833
11.676864,5313
11.677864,4561
11.678864,8482
11.679864,4801
11.680865,5089
11.681864,4273
11.682865,3472
11.683864,3936
11.684866,4161
11.685864,4481
11.686864,5985
11.687866,5153
11.688862,5633
11.689864,5697
11.690862,4016
11.691888,6689
11.692871,5777
11.693868,4225
11.694865,4177
11.695864,4945
11.696867,3968
11.697863,5793
11.698865,4193
11.699864,4417
11.700864,5649
11.701862,4369
11.860984,4785
11.861621,4048
11.862060,4641
11.862470,7825
11.862878,7329
11.863340,4193
11.863741,5169
11.864141,4305
11.864540,4064
11.864959,5089
11.865354,7313
11.865753,7393
11.866154,8177
11.866555,6545
11.866958,5889
11.867864,4993
11.868863,6193
11.869865,4545
11.870864,4625
11.871865,4785
11.872866,4897
11.873862,4673
11.874863,6193
11.875862,6049
11.876864,7505
11.877865,6577
11.878865,5425
11.879865,5409
11.880864,4145
11.881865,4161
11.882891,7665
11.883871,5697
11.884865,5393
11.885866,9074
11.886866,4673
11.887864,5841
11.888865,3920
11.889866,4993
11.890865,5793
11.891864,3872
11.892864,6849
11.893866,5809
11.894862,4545
11.895864,4929
11.896866,4145
11.897864,4145
11.898864,4593
11.899864,4513
11.900866,3920
11.901865,4561
11.902862,4241
11.903864,3888
11.904863,4032
11.905862,6433
11.906862,5777
11.907864,4225
11.908864,4481
11.909866,6017
11.910862,4064
11.911865,6897
11.912863,4225
11.913864,10306
11.914865,5057
11.915864,6449
11.916862,4481
11.917864,4000
11.918865,4257
11.919866,5281
11.920866,5553
11.921866,5089
11.922865,3744
11.923865,6305
11.924865,5985
11.925865,4897
11.926865,8578
11.927864,9090
11.928862,5697
11.929865,4161
11.930866,4385
11.931864,4705
11.932862,3984
11.933864,4337
11.934864,6353
11.935865,4225
11.936864,4048
11.937862,4657
11.938865,4113
11.939866,3920
11.940864,5121
11.941864,4561
11.942864,4433
11.943863,6337
11.944862,6849
11.945862,5009
11.946881,5553
11.947869,4865
11.948865,4369
11.949865,4177
11.950866,4401
11.951864,4993
11.952862,4433
11.953864,6273
11.954863,6193
11.955866,4641
11.956864,4064
11.957862,4545
11.958864,4161
11.959866,3824
11.960864,4145
11.961864,5057
11.962864,6721
11.963864,4193
11.964864,4177
11.965864,5041
11.966863,7265
11.967865,4401
11.968865,4064
11.969863,4369
11.970864,4305
11.971864,3936
11.972864,6337
11.973865,5409
11.974864,4881
11.975864,4193
11.976864,4561
11.977864,3888
11.978862,4080
11.979863,5313
11.980866,4481
11.981864,6369
11.982862,7377
11.983864,4577
11.984864,3984
11.985864,4785
11.986863,3968
11.987864,3872
11.988866,6081
11.989863,4913
11.990863,4481
11.991863,4048
11.992864,8354
11.993864,5649
11.994865,7457
11.995865,5969
11.996865,7857
11.997866,4048
11.998864,5505
11.999864,4529
12.000863,4241
12.001864,5889
12.002865,4129
12.003863,6593
12.004866,5265
12.005864,4497
12.006863,4513
12.007863,6945
12.008864,4577
12.009866,4913
12.010877,6977
12.011868,5249
12.012864,4289
12.013863,3984
12.014864,4721
12.015863,4289
12.016864,4048
12.017865,4417
12.018865,4817
12.019864,6561
12.020865,5585
12.021864,4369
12.022863,4385
12.023864,5025
12.024864,6081
12.025862,4417
12.026862,4273
12.027864,5153
12.028865,4529
12.029864,4097
12.030862,4961
12.031863,4785
12.032863,7217
12.033863,5361
12.034864,4145
12.035866,4064
12.036863,4977
12.037865,6209
12.038862,5329
12.039863,4113
12.040864,4145
12.041865,4113
12.042864,4929
12.043865,5025
12.044863,4993
12.045866,4657
12.046864,5441
12.047865,5441
12.048863,7105
12.049864,8354
12.050865,5217
12.051864,4064
12.261037,5793
12.261832,5313
12.262405,6289
12.262965,6065
12.263510,5809
12.264132,5185
12.264680,5553
12.265230,6769
12.265778,5585
12.266346,4433
12.267016,4945
12.267581,5377
12.268143,5537
12.268694,5409
12.269251,4753
12.269808,5761
12.270364,5553
12.270946,4113
12.271505,6849
12.272066,4241
12.272863,5809
12.273864,6721
12.274865,5409
12.275864,4113
12.276864,4369
12.277864,4897
12.278864,5441
12.279864,5137
12.280864,4064
12.281865,4113
12.282865,4881
12.283866,3936
12.284863,4080
12.285864,7393
12.286863,5425
12.287866,4369
12.288864,4529
12.289866,6145
12.290863,4481
12.291865,4241
12.292863,4657
12.293864,4241
12.294864,5009
12.295864,3952
12.296865,3872
12.297864,4673
12.298866,4193
12.299864,6689
12.300864,5249
12.301867,4609
12.302862,4321
12.303865,5889
12.304865,5153
12.305864,6737
12.306864,9346
12.307863,5505
12.308865,4305
12.309864,4353
12.310863,4353
12.311863,4641
12.312865,5841
12.313863,4193
12.314864,4305
12.315864,4305
12.316865,5329
12.317865,4225
12.318863,5473
12.319866,4241
12.320864,6401
12.321863,4961
12.322864,4449
12.323864,5217
12.324864,4753
12.325865,4064
12.326864,5121
12.327863,5537
12.328864,4369
12.329864,4625
12.330881,6033
12.331872,5073
12.332868,8418
12.333862,8994
12.334866,6929
12.335865,4064
12.336864,4273
12.337865,4513
12.338866,4032
12.339866,4769
12.340862,4000
12.341864,4129
12.342864,4161
12.343864,6161
12.344865,6305
12.345865,4417
12.346865,6161
12.347864,6337
12.348865,4048
12.349863,4993
12.350866,4737
12.351862,8258
12.352864,5665
12.353863,4657
12.354864,4193
12.355863,5089
12.356866,5601
12.357863,6097
12.358864,6273
12.359866,6465
12.360861,4273
12.361864,4529
12.362862,4609
12.363865,4225
12.364863,4785
12.365863,4497
12.366865,5441
12.367864,5185
12.368867,4513
12.369862,4513
12.370864,4337
12.371866,4113
12.372866,4064
12.373864,4385
12.374865,6257
12.375863,4513
12.376863,5857
12.377863,4881
12.378864,5249
12.379864,4129
12.380866,5905
12.381865,6529
12.382864,5329
12.383866,4225
12.384865,4433
12.385863,5649
12.386866,4177
12.387866,4048
12.388864,5505
12.389863,4433
12.390863,4737
12.391866,6081
12.392864,5425
12.393866,6609
12.394882,4993
12.395868,4097
12.396866,7857
12.397863,4513
12.398866,4016
12.399863,4177
12.400866,6225
12.401862,4961
12.402864,4161
12.403865,4449
12.404865,4273
12.405865,5297
12.406864,4705
12.407863,4705
12.408864,4032
12.409864,5953
12.410862,5409
12.411864,5345
12.412864,6417
12.413866,9810
12.414866,6641
12.415864,7953
12.416863,4401
12.417864,7041
12.418862,4641
12.419865,4113
12.420864,4625
12.421862,4897
12.422865,6545
12.423864,4385
12.424864,4401
12.425865,5041
12.426864,4064
12.427864,7761
12.428865,5553
12.429866,5153
12.430866,5713
12.431864,4305
12.432864,4481
12.433864,6321
12.434865,4913
12.435863,5457
12.436862,4465
12.437865,6865
12.438865,4609
12.439864,4785
12.440862,4817
12.441863,5377
12.442862,5329
12.443864,4032
12.444864,6193
12.445865,4449
12.446864,4577
12.447864,4481
12.448864,4881
12.449864,4881
12.450864,4497
12.451863,5841
12.605349,5009
12.606323,4177
12.607075,5681
12.607793,4097
12.608503,5169
12.609286,6865
12.609999,4032
12.610705,5073
12.611413,4513
12.612142,4785
12.612855,5537
12.613562,5185
12.614273,4417
12.614987,4961
12.615695,3936
12.616412,4769
12.617125,6961
12.617865,4321
12.618580,4929
12.619297,5841
12.620019,5809
12.620741,5009
12.621460,4897
12.622180,7073
12.622904,6369
12.623622,4417
12.624346,4305
12.625072,5313
12.625865,4817
12.626864,5201
12.627865,4881
12.628864,4289
12.629862,4321
12.630865,5041
12.631864,4625
12.632865,4481
12.633863,4449
12.634865,5777
12.635865,4865
12.636865,4545
12.637865,4321
12.638866,6097
12.639865,4257
12.640865,5009
12.641863,6577
12.642864,5937
12.643867,4161
12.644865,4433
12.645864,4657
12.646864,4513
12.647864,4481
12.648863,5121
12.649862,4753
12.650888,5073
12.651868,4577
12.652864,4481
12.653865,4321
12.654864,6145
12.655866,4497
12.656864,5953
12.657864,6785
12.658863,4529
12.659864,5249
12.660864,5297
12.661866,6369
12.662866,4289
12.663864,7777
12.664865,4737
12.665863,5921
12.666865,9986
12.667865,5377
12.668864,4705
12.669863,4881
12.670864,4833
12.671864,5377
12.672864,4753
12.673864,4577
12.674863,4241
12.675865,5169
12.676865,4609
12.677864,4785
12.678864,4497
12.679863,4433
12.680866,4273
12.681864,4785
12.682861,5681
12.683864,5601
12.684863,4961
12.685865,4641
12.686865,4673
12.687866,4609
12.688863,6593
12.689864,4993
12.690864,6081
12.691863,6081
12.692864,6241
12.693865,4449
12.694864,4561
12.695864,5121
12.696865,7697
12.697863,6497
12.698863,5857
12.699864,4593
12.700864,5185
12.701864,7265
12.702863,5153
12.703864,4785
12.704864,4689
12.705866,5345
12.706864,5073
12.707864,5217
12.708864,4593
12.709865,4545
12.710865,4913
12.711863,5201
12.712864,4577
12.713864,4753
12.714886,4993
12.715871,6097
12.716867,5777
12.717866,4513
12.718865,4657
12.719863,4529
12.720866,4401
12.721863,5793
12.722864,4769
12.723865,4561
12.724865,5217
12.725863,5617
12.726866,5137
12.727863,6193
12.728864,5089
12.729864,4529
12.730865,4481
12.731865,4545
12.732865,5745
12.733862,8145
12.734864,4929
12.735864,4465
12.736864,6929
12.737866,5329
12.738864,4657
12.739864,5041
12.740866,4257
12.741865,4593
12.742865,7489
12.743864,4609
12.744864,7393
12.745864,6689
12.746864,5281
12.747863,4529
12.748864,5249
12.749864,7905
12.750864,7297
12.751864,4865
12.752864,7169
12.753864,5025
12.754865,5201
12.755864,5857
12.756865,5217
12.757864,4449
12.768459,6097
12.768694,5713
12.768921,5393
12.769132,5505
12.769347,4881
12.769561,5153
12.769775,4529
12.769996,4641
12.770210,5969
12.770424,4913
12.770865,5009
12.771863,5857
12.772866,4673
12.773864,5137
12.774865,4705
12.775862,6001
12.776864,5569
12.777865,4321
12.778885,5041
12.779870,4641
12.780866,5985
12.781865,5089
12.782864,6865
12.783863,5873
12.784864,6785
12.785862,8642
12.786864,6513
12.787864,4273
12.788862,4481
12.789865,4865
12.790864,4561
12.791865,4881
12.792864,4305
12.793862,4561
12.794863,5121
12.795866,4465
12.796862,5713
12.797864,4785
12.798865,4865
12.911008,5361
12.911541,5761
12.911872,5201
12.912173,5793
12.912458,5793
12.912813,4881
12.913103,4048
12.913392,5169
12.913676,4577
12.913991,5409
12.914280,5473
12.914570,4881
12.914863,5137
12.915864,4801
12.916865,4673
12.917863,4897
12.918864,4689
12.919866,5169
12.920865,4433
12.921864,4753
12.922865,4593
12.923864,5297
12.924864,5265
12.925866,6273
12.926864,4833
12.927865,4545
12.928865,4753
12.929865,5553
12.930864,4577
12.931865,4673
12.932864,4769
12.933864,5377
12.934864,5089
12.935863,4945
12.936864,6097
12.937865,4513
12.938865,6209
12.939864,4689
12.940864,5809
12.941863,4881
12.942866,4497
12.943864,4913
12.944865,5713
12.945865,4577
12.946862,4289
12.947864,6321
12.948862,4881
12.949864,5377
12.950866,4769
12.951863,4641
12.952863,5121
12.953863,5841
12.954864,5217
12.955865,4785
12.956863,4449
12.957864,5393
12.958864,4497
12.959866,5297
12.960864,4961
12.961864,7441
12.962864,5457
12.963863,4993
12.964862,4897
12.965865,5681
12.966866,5633
12.967866,4737
12.968864,4465
12.969864,5617
12.970866,5969
12.971885,5537
12.972869,4529
12.973866,4369
12.974864,4641
12.975864,5025
12.976865,4401
12.977865,5297
12.978867,4769
12.979863,5601
12.980863,4993
12.981862,5297
12.982864,4913
12.983866,4929
12.984865,6257
12.985866,5329
12.986865,6769
12.987864,4529
12.988864,5025
12.989863,4737
12.990864,4801
12.991864,5585
12.992864,4801
12.993865,4961
12.994864,4785
12.995864,5073
12.996865,5793
12.997864,6065
12.998864,5281
12.999865,4785
13.000864,4865
13.001863,6577
13.002866,5569
13.003863,5665
13.004864,6401
13.005865,4945
13.006865,4769
13.007863,5121
13.008864,4865
13.009864,5441
13.010865,4609
13.011864,4913
13.012863,4817
13.013864,5297
13.014864,5105
13.015864,4865
13.016866,7217
13.017863,4753
13.018862,6721
13.019864,6049
13.020864,4897
13.021865,4881
13.022863,4529
13.023863,4705
13.024864,4945
13.025862,5009
13.026864,4625
13.027864,8081
13.028865,5921
13.029865,6145
13.030863,5841
13.031863,5425
13.032865,4897
13.033862,5009
13.034867,5649
13.035883,6081
13.036873,4497
13.037866,4721
13.038865,4897
13.039865,4625
13.040862,5777
13.041865,5777
13.042864,4993
13.043864,6065
13.044866,4417
13.045864,4577
13.046865,5505
13.047864,4881
13.048865,5617
13.049864,4625
13.050864,5953
13.051863,5377
13.052866,4593
13.053863,4561
13.054864,5073
13.055866,5665
13.056866,6769
13.057865,6801
13.058863,4961
13.059864,4689
13.060866,5121
13.061864,5537
13.062866,4913
13.063866,4673
13.064861,5553
13.065865,4833
13.066865,4849
13.067864,5585
13.068866,4561
13.069866,5393
13.070865,4929
13.071863,5217
13.072866,4625
13.073864,5265
13.074863,5425
13.075863,5153
13.076864,4897
13.077864,6353
13.078865,5201
13.079864,4545
13.080864,4513
13.081866,4577
13.082863,6993
13.083864,6465
13.084864,6337
13.085863,4769
13.086864,5249
13.087864,4657
13.088865,5905
13.089865,7121
13.090862,4817
13.091863,5121
13.092865,4737
13.093866,4833
13.094864,5185
13.095863,5281
13.096865,4785
13.097864,7841
13.098863,6145
13.099882,5345
13.100870,4321
13.101863,4705
13.258654,6449
13.259364,5009
13.259839,4032
13.260294,5633
13.260736,6785
13.261250,6993
13.261694,5649
13.262141,5249
13.262580,4161
13.263048,4385
13.263490,5569
13.263936,5921
13.264384,6353
13.264829,5185
13.265279,5521
13.265864,5313
13.266863,5153
13.267863,5873
13.268864,4913
13.269866,4945
13.270863,5137
13.271865,5761
13.272864,4609
13.273862,4737
13.274864,4801
13.275864,7601
13.276864,5377
13.277864,7249
13.278864,4945
13.279863,6465
13.280865,4753
13.281864,3680
13.282864,4737
13.283864,5025
13.284865,4785
13.285866,6193
13.286865,6177
13.287864,5185
13.288864,5041
13.289864,5457
13.290865,5233
13.291885,6257
13.292870,4817
13.293866,6753
13.294864,6785
13.295864,4641
13.296866,4593
13.297865,4913
13.298864,4689
13.299864,7089
13.300862,5313
13.301864,5121
13.302864,4897
13.303864,5553
13.304864,4961
13.305864,5201
13.306863,5569
13.307864,4993
13.308864,4497
13.309864,4753
13.310864,6241
13.311865,6273
13.312864,5665
13.313864,5841
13.314863,5601
13.315864,5841
13.316865,5425
13.317865,5281
13.318864,4737
13.319864,4753
13.320864,5617
13.321863,5617
13.322864,5937
13.323864,6785
13.324863,5137
13.325866,4993
13.326865,4993
13.327865,5793
13.328865,6305
13.329863,5057
13.330864,5073
13.331864,4785
13.332864,5953
13.333864,5377
13.334866,5697
13.335864,5633
13.336864,5249
13.337865,5697
13.338864,6001
13.339864,6337
13.340865,5777
13.341864,5169
13.342866,4945
13.343863,6113
13.344865,5601
13.345864,5137
13.346864,5505
13.347863,5841
13.348864,5697
13.349867,5457
13.350864,8434
13.351864,7553
13.352864,5089
13.353864,5745
13.354865,6801
13.355880,4833
13.356868,4673
13.357867,4865
13.358865,6449
13.359867,4929
13.360863,5633
13.361862,4417
13.362865,5217
13.363864,5265
13.364864,5297
13.365865,5121
13.366864,5793
13.367865,5313
13.368865,6049
13.369863,5345
13.370863,5505
13.371864,5233
13.372865,5649
13.373866,4977
13.374861,5985
13.375866,6593
13.376864,6849
13.377864,5569
13.378864,4913
13.379864,5921
13.380864,6577
13.381864,5265
13.382866,5217
13.383865,5473
13.384865,4881
13.385865,4689
13.386864,4833
13.387866,5057
13.388866,5489
13.389863,5041
13.390864,6193
13.391862,5633
13.392863,5473
13.393865,6785
13.394866,5281
13.395864,5169
13.396866,5073
13.397863,4961
13.398864,4913
13.399864,6433
13.400864,6289
13.401866,5121
13.402864,5025
13.403865,6033
13.404866,5089
13.405863,4833
13.406864,5185
13.407864,5201
13.408864,5793
13.409862,6849
13.410862,5953
13.411864,4513
13.412863,7505
13.413865,6049
13.414864,7313
13.415864,6337
13.416866,4545
13.417865,4897
13.418866,6481
13.419878,4032
13.420871,4897
13.421866,6177
13.422865,5329
13.423864,5073
13.424864,5505
13.425865,5185
13.426864,8466
13.427864,5649
13.428865,6401
13.429866,6289
13.430864,5537
13.431864,5153
13.432865,5089
13.433864,5041
13.434865,5089
13.435863,5457
13.436865,5425
13.437865,5537
13.438865,5281
13.439864,4705
13.440863,6705
13.441865,5649
13.442864,5633
13.443864,6033
13.444866,5169
13.445864,4945
13.446864,5297
13.447864,5409
13.448863,5249
13.449866,5489
13.604935,5585
13.605777,6017
13.606407,6929
13.607011,6145
13.607605,4897
13.608268,5281
13.608867,5233
13.609460,4561
13.610061,5665
13.610677,4449
13.611441,4945
13.612058,3904
13.612659,3856
13.613264,4689
13.613865,4929
13.614462,6145
13.615067,6017
13.615692,5425
13.616296,5345
13.616902,4641
13.617506,4657
13.618112,4273
13.618865,5697
13.619866,4721
13.620866,6657
13.621862,5313
13.622863,5553
13.623864,5697
13.624865,5713
13.625864,5537
13.626864,5825
13.627864,5425
13.628863,5009
13.629866,5185
13.630865,6161
13.631864,6481
13.632864,5201
13.633864,5073
13.634863,6785
13.635864,6689
13.636864,7697
13.637865,5441
13.638866,6273
13.639865,5601
13.640864,4961
13.641867,5617
13.642866,6529
13.643864,5121
13.644866,5441
13.645863,5809
13.646862,5009
13.647866,5249
13.648865,5905
13.649864,5649
13.650867,5521
13.651864,5697
13.652864,4881
13.653863,5953
13.654864,6065
13.655864,4769
13.656864,4817
13.657864,4913
13.658863,5649
13.659864,6417
13.660863,8354
13.661864,6449
13.662866,5281
13.663865,6529
13.664866,5873
13.665864,4016
13.666864,6193
13.667864,6785
13.668864,6529
13.669866,5793
13.670865,4865
13.671864,5809
13.672865,5873
13.673864,4689
13.674866,7889
13.675888,5137
13.676867,6625
13.677864,7329
13.678863,5345
13.679865,5921
13.680864,7233
13.681866,4737
13.682864,5969
13.683863,5825
13.684865,7217
13.685862,5649
13.686864,4913
13.687864,5057
13.688863,4945
13.689865,5217
13.690865,6097
13.691863,4449
13.692864,6241
13.693865,5473
13.694863,5457
13.695863,5457
13.696864,5809
13.697864,4657
13.698863,4513
13.699861,3952
13.700865,5297
13.701864,6145
13.702864,6849
13.703865,5761
13.704864,4817
13.705865,5825
13.706864,4993
13.707864,5793
13.708864,5345
13.709863,5665
13.710864,5377
13.711865,5521
13.712864,4657
13.713864,4865
13.714865,5729
13.715863,5521
13.716865,5601
13.717865,5633
13.718863,4833
13.719864,5217
13.720863,6721
13.721863,4929
13.722865,6497
13.723865,5313
13.724866,5553
13.725865,4865
13.726863,5297
13.727865,5329
13.728865,5137
13.729864,5313
13.730863,7713
13.731864,6177
13.732863,5777
13.733864,5793
13.734862,5153
13.735865,5665
13.736865,5249
13.737864,5633
13.738861,4945
13.739882,3696
13.740870,4897
13.741866,5585
13.742866,5345
13.743863,4016
13.744865,5025
13.745863,4929
13.746864,4689
13.747864,4897
13.748864,4801
13.749864,5681
13.750864,6081
13.751863,6497
13.752864,5457
13.753864,5905
13.754865,5393
13.755864,5713
13.756863,4129
13.757864,4817
13.758864,5137
13.759864,5425
13.760864,6321
13.761862,5025
13.762865,5777
13.763864,5041
13.764863,4641
13.765864,5713
13.766864,6529
13.767864,4785
13.768862,7297
13.769865,7601
13.770864,6369
13.771864,4993
13.772864,6369
13.773864,5153
13.774864,4897
13.775865,5777
13.776866,5569
13.777864,3968
13.778862,4913
13.779866,4993
13.780865,5505
13.781862,4977
13.782864,5281
13.783862,4129
13.784864,4769
13.785863,5025
13.786863,4481
13.787864,5889
13.788864,4545
13.789865,4657
13.790865,6881
13.791865,5857
13.792866,5185
13.793863,4241
13.794865,4913
13.795862,8594
13.916284,5665
13.917306,5009
13.918108,5041
13.918878,4353
13.919633,5041
13.920466,5553
13.921221,7377
13.921981,5505
13.922741,5905
13.923515,5665
13.924275,5889
13.925039,4481
13.925798,4849
13.926561,4401
13.927327,4369
13.928089,4048
13.928856,4257
13.929642,4689
13.930410,4016
13.931345,4993
13.932122,5537
13.932893,8033
13.933657,5313
13.934429,5553
13.935201,6049
13.935969,5649
13.936735,5537
13.937506,5153
13.938276,5953
13.939052,4865
13.939822,4865
13.940598,5073
13.941378,4865
13.942192,5249
13.942968,5473
13.943864,4689
13.944863,4577
13.945864,3488
13.946864,5249
13.947864,6417
13.948864,7377
13.949863,4673
13.950864,4705
13.951865,4481
13.952864,4497
13.953861,4225
13.954864,4273
13.955866,5889
13.956865,5073
13.957865,4817
13.958865,4801
13.959864,4433
13.960864,4145
13.961866,5009
13.962866,5617
13.963865,4513
13.964864,3680
13.965863,5521
13.966864,5281
13.967864,5249
13.968863,5969
13.969864,5329
13.970863,4993
13.971865,5057
13.972863,4513
13.983129,4625
13.983359,4321
13.983579,4513
13.983787,4000
13.984001,4513
13.984216,3728
13.984429,5137
13.984646,6305
13.984868,5665
13.985089,4145
13.985865,5089
13.986866,5985
13.987862,4064
13.988866,4689
13.989864,5153
13.990863,4337
13.991866,4625
13.992864,5937
13.993864,7281
13.994877,7377
13.995871,5633
13.996868,5025
13.997863,4225
13.998864,7345
13.999865,5153
14.000864,4689
14.001864,4048
14.002865,3968
14.003864,4833
14.004864,7969
14.005864,5409
14.006865,4529
