Tempo(s),EMG_Value
0.004504,832
0.006033,1344
0.006407,1312
0.007330,720
0.008324,816
0.009324,1024
0.010321,1024
0.011323,784
0.012322,640
0.013322,1008
0.014321,752
0.015320,928
0.016324,800
0.017322,992
0.018321,944
0.019320,832
0.020324,928
0.021323,864
0.022323,928
0.023321,768
0.024321,656
0.025322,1040
0.026322,1216
0.027324,768
0.028322,960
0.029320,832
0.030323,816
0.031324,736
0.032321,896
0.033323,896
0.034321,832
0.035323,816
0.036323,688
0.037320,960
0.038323,720
0.039322,720
0.040323,864
0.041322,1072
0.042323,1040
0.043322,912
0.044323,864
0.045322,848
0.046322,1072
0.047368,1024
0.048329,832
0.049325,928
0.050322,816
0.051321,752
0.052324,688
0.053322,928
0.054322,864
0.055321,768
0.056324,736
0.057322,800
0.058322,1200
0.059324,896
0.060322,896
0.061321,784
0.062324,848
0.063323,832
0.064322,912
0.065322,672
0.066322,1104
0.067321,1200
0.068321,576
0.069323,800
0.070322,976
0.071322,992
0.072322,1136
0.073322,1072
0.074319,720
0.075322,832
0.076322,928
0.077324,912
0.078321,672
0.079323,800
0.080323,976
0.081322,912
0.082324,1376
0.083324,864
0.084325,1088
0.085321,1088
0.086323,560
0.087320,544
0.088324,864
0.089322,1024
0.090324,928
0.091320,944
0.092322,1408
0.093322,848
0.094322,944
0.095321,912
0.096321,864
0.097323,640
0.098322,832
0.099323,768
0.100322,1024
0.101322,576
0.102322,1024
0.103320,704
0.104324,816
0.105322,1040
0.106323,864
0.107323,992
0.108321,688
0.109321,800
0.110322,768
0.111414,608
0.112331,640
0.113324,704
0.114322,768
0.115322,832
0.116322,688
0.117322,1152
0.118324,1024
0.119323,768
0.120324,848
0.121325,800
0.122322,1024
0.123322,800
0.124324,864
0.125322,1264
0.126322,912
0.127322,720
0.128324,832
0.129320,832
0.130321,592
0.131320,848
0.132323,704
0.133324,1120
0.134322,944
0.135323,784
0.136323,1232
0.137320,672
0.138323,784
0.139322,816
0.140324,848
0.141322,720
0.142323,1216
0.143321,832
0.144322,720
0.145322,848
0.146321,720
0.147322,816
0.148321,1888
0.149320,928
0.150322,2624
0.151321,1200
0.152322,672
0.153322,1232
0.154322,992
0.155323,816
0.156322,784
0.157322,976
0.158322,912
0.159321,1040
0.160323,800
0.161323,1184
0.162322,1024
0.163322,912
0.164322,560
0.165324,816
0.166321,752
0.167322,816
0.168323,816
0.169322,928
0.170323,832
0.171322,608
0.172323,832
0.173322,848
0.174323,832
0.175322,1200
0.176340,816
0.177325,992
0.178322,944
0.179323,912
0.180322,656
0.181322,960
0.182320,592
0.183323,704
0.184320,752
0.185321,1008
0.186323,608
0.187321,976
0.188322,816
0.189321,688
0.190322,896
0.191322,816
0.192320,608
0.193324,896
0.194322,944
0.195322,1136
0.196321,992
0.197322,1040
0.198322,848
0.199322,912
0.200320,944
0.201319,896
0.202323,800
0.203324,960
0.324422,784
0.325028,784
0.325438,720
0.325816,416
0.326186,592
0.326633,576
0.327003,912
0.327383,720
0.327760,960
0.328152,976
0.328529,704
0.328906,736
0.329282,768
0.329660,672
0.330322,720
0.331322,768
0.332322,704
0.333324,912
0.334322,640
0.335322,432
0.336323,768
0.337320,912
0.338322,816
0.339322,704
0.340322,576
0.341323,736
0.342323,784
0.343324,896
0.344323,896
0.345322,688
0.346321,496
0.347324,848
0.348324,816
0.349320,640
0.350322,1328
0.351323,1056
0.352323,688
0.353324,768
0.354323,672
0.355321,512
0.356323,400
0.357322,592
0.358322,768
0.359322,960
0.360321,576
0.361323,864
0.362322,1120
0.363322,608
0.364323,736
0.365320,432
0.366322,816
0.367350,912
0.368328,768
0.369323,640
0.370326,928
0.371320,1248
0.372324,928
0.373322,720
0.374323,848
0.375323,752
0.376321,384
0.377322,656
0.378323,784
0.379322,768
0.380320,752
0.381323,656
0.382322,672
0.383324,848
0.384321,800
0.385322,544
0.386322,992
0.387322,576
0.388322,640
0.389322,704
0.390322,912
0.391321,416
0.392322,752
0.393324,1024
0.394323,736
0.395322,576
0.396323,816
0.397322,896
0.398322,720
0.399321,512
0.400323,560
0.401324,816
0.402322,768
0.403323,672
0.404321,576
0.405321,480
0.406322,512
0.407322,640
0.408321,496
0.409321,416
0.410320,384
0.411321,736
0.412323,1008
0.413324,992
0.414320,816
0.415321,960
0.416322,704
0.417320,704
0.418321,480
0.419322,672
0.420322,640
0.421321,912
0.422323,768
0.423323,944
0.424321,528
0.425324,1200
0.426323,768
0.427322,512
0.428321,736
0.429322,816
0.430322,944
0.431343,416
0.432326,768
0.433327,896
0.434322,608
0.435322,464
0.436322,272
0.437322,928
0.438322,1040
0.439322,992
0.440320,400
0.441323,784
0.442322,544
0.443324,720
0.444324,848
0.445322,992
0.446322,640
0.447321,1024
0.448322,1376
0.449322,656
0.450323,592
0.451321,560
0.452323,560
0.453323,560
0.454322,512
0.455322,544
0.456322,576
0.457322,560
0.458323,528
0.459324,928
0.460323,896
0.461323,624
0.462323,672
0.463323,576
0.464322,736
0.465323,768
0.466321,544
0.467323,800
0.468322,512
0.469324,768
0.470320,464
0.471320,672
0.472321,560
0.473321,480
0.474324,832
0.475323,672
0.476323,512
0.477322,560
0.478323,1024
0.479320,1024
0.480324,800
0.481322,672
0.482321,688
0.483324,704
0.484321,400
0.485323,960
0.486320,736
0.487322,448
0.488321,576
0.489321,688
0.490322,592
0.491321,608
0.492322,848
0.493321,752
0.494323,688
0.495337,640
0.496329,960
0.497326,1152
0.498323,736
0.499322,592
0.500323,560
0.501322,944
0.502323,512
0.503323,1024
0.504322,432
0.505322,384
0.506322,544
0.507322,400
0.508324,592
0.509321,720
0.510324,1072
0.511321,320
0.512323,560
0.513323,432
0.514323,480
0.515321,480
0.663193,816
0.663986,816
0.664552,624
0.665081,816
0.665610,688
0.666200,688
0.666732,960
0.667257,816
0.667786,832
0.668337,704
0.668864,608
0.669397,832
0.669924,800
0.670460,800
0.670986,720
0.671516,416
0.672048,320
0.672603,688
0.673322,528
0.674321,592
0.675322,736
0.676323,576
0.677323,464
0.678322,336
0.679323,848
0.680322,528
0.681322,688
0.682323,528
0.683322,784
0.684320,1216
0.685324,512
0.686323,576
0.687345,672
0.688327,1168
0.689324,624
0.690324,576
0.691322,1168
0.692322,592
0.693323,896
0.694323,736
0.695322,752
0.696322,400
0.697323,448
0.698324,544
0.699322,624
0.700324,592
0.701323,464
0.702322,1024
0.703322,592
0.704322,1120
0.705322,768
0.706322,608
0.707322,592
0.708323,672
0.709322,544
0.710322,512
0.711322,688
0.712324,544
0.713322,784
0.714322,688
0.715323,464
0.716322,496
0.717324,576
0.718322,368
0.719322,432
0.720322,592
0.721323,768
0.722322,736
0.723322,592
0.724322,496
0.725324,656
0.726323,544
0.727322,640
0.728322,352
0.729322,592
0.730323,496
0.731323,848
0.732322,240
0.733322,608
0.734322,640
0.735321,464
0.736320,464
0.737323,512
0.738323,512
0.739322,640
0.740322,400
0.741321,304
0.742323,272
0.743324,688
0.744321,592
0.745323,480
0.746324,592
0.747319,528
0.748320,544
0.749322,736
0.750320,1152
0.751341,816
0.752329,736
0.753326,704
0.754323,448
0.755322,448
0.756321,704
0.757323,448
0.758322,816
0.759323,896
0.760322,432
0.761323,624
0.762322,512
0.763321,432
0.764321,528
0.765321,1184
0.766321,592
0.767322,784
0.768322,656
0.769322,624
0.770320,656
0.771323,400
0.772321,640
0.773322,720
0.774322,448
0.775324,464
0.776323,480
0.777322,944
0.778322,592
0.779321,704
0.780324,848
0.781322,752
0.782320,512
0.783322,672
0.784321,688
0.785322,896
0.786323,944
0.787322,640
0.788322,416
0.789324,448
0.790322,768
0.791320,592
0.792322,384
0.793323,352
0.794322,576
0.795322,480
0.796321,512
0.797322,864
0.798321,736
0.799324,480
0.800322,432
0.801320,480
0.802321,384
0.803322,512
0.804322,992
0.805323,976
0.806324,592
0.807322,416
0.808321,512
0.809322,416
0.810322,432
0.811322,736
0.812322,448
0.813322,496
0.814321,720
0.815371,592
0.816331,768
0.817324,368
0.818320,448
0.819322,640
0.820324,560
0.821323,608
0.822321,560
0.823320,928
0.824324,544
0.825323,352
0.826321,1184
0.827322,608
0.828324,704
0.829322,944
0.830322,288
0.831322,480
0.832322,304
0.833322,832
0.834323,496
0.835322,512
0.836322,656
0.837320,752
0.838321,352
0.839320,544
0.840324,608
0.841323,400
0.842322,448
0.843322,736
0.844322,688
0.845320,496
0.846324,336
0.847322,1152
0.848324,544
0.849322,832
0.850322,336
0.851321,464
0.852321,608
0.853323,608
0.854321,592
0.965779,912
0.966713,1072
0.967424,720
0.968107,1024
0.968787,848
0.969533,944
0.970211,800
0.970893,752
0.971575,672
0.972273,720
0.972951,384
0.973642,544
0.974325,592
0.975006,864
0.975694,576
0.976380,864
0.977060,896
0.977766,816
0.978457,912
0.979142,560
0.979831,704
0.980522,560
0.981205,896
0.981896,1152
0.982584,928
0.983322,768
0.984322,608
0.985322,544
0.986321,624
0.987323,592
0.988320,336
0.989323,448
0.990322,576
0.991325,592
0.992322,880
0.993323,480
0.994323,480
0.995323,416
0.996322,352
0.997321,640
0.998322,576
0.999322,432
1.000322,576
1.001323,512
1.002323,816
1.003321,336
1.004322,512
1.005322,304
1.006322,512
1.007321,944
1.008347,848
1.009324,592
1.010324,656
1.011322,544
1.012321,480
1.013320,368
1.014323,416
1.015324,512
1.016321,528
1.017324,560
1.018323,816
1.019322,768
1.020322,832
1.021320,432
1.022324,576
1.023322,464
1.024324,320
1.025322,432
1.026324,512
1.027320,624
1.028321,672
1.029322,576
1.030322,672
1.031323,512
1.032322,496
1.033322,560
1.034321,544
1.035321,544
1.036323,512
1.037320,528
1.038322,608
1.039324,592
1.040322,496
1.041324,896
1.042322,976
1.043321,480
1.044322,544
1.045322,304
1.046322,432
1.047321,464
1.048321,688
1.049322,560
1.050323,528
1.051321,624
1.052321,576
1.053323,512
1.054323,608
1.055322,384
1.056320,656
1.057322,592
1.058321,336
1.059324,544
1.060321,736
1.061320,640
1.062322,640
1.063321,784
1.064322,528
1.065322,464
1.066322,480
1.067322,640
1.068323,672
1.069324,688
1.070322,528
1.071320,672
1.072337,640
1.073324,720
1.074323,688
1.075323,528
1.076322,784
1.077323,592
1.078322,688
1.079321,672
1.080320,752
1.081323,640
1.082321,544
1.083322,640
1.084322,720
1.085324,544
1.086322,976
1.087323,704
1.088323,608
1.089321,688
1.090322,608
1.091323,576
1.092322,704
1.093324,784
1.094322,464
1.095322,752
1.096322,448
1.097322,592
1.098323,832
1.099322,640
1.100324,480
1.101322,960
1.102323,608
1.103322,544
1.104322,480
1.105324,688
1.106323,768
1.107323,464
1.108322,736
1.109324,672
1.110322,640
1.111322,576
1.112322,768
1.113323,352
1.114323,528
1.115322,544
1.116322,672
1.117322,720
1.118320,560
1.119322,672
1.120321,592
1.121322,768
1.122322,608
1.123323,816
1.124323,736
1.125322,576
1.126324,448
1.127323,464
1.128320,528
1.129322,400
1.130322,608
1.131320,592
1.132321,672
1.133324,800
1.134322,832
1.135321,544
1.136335,928
1.137327,560
1.138321,960
1.139324,608
1.140323,560
1.141322,512
1.142322,736
1.143322,784
1.144322,928
1.145323,672
1.146322,528
1.147324,512
1.148323,848
1.149321,448
1.150322,448
1.151322,864
1.152322,816
1.153322,864
1.154322,720
1.155322,432
1.156323,688
1.157323,528
1.326639,576
1.327134,608
1.327414,960
1.327663,240
1.328060,1024
1.328342,672
1.328583,784
1.328819,768
1.329058,1056
1.329317,672
1.329558,976
1.330323,512
1.331322,992
1.332322,640
1.333320,464
1.334320,640
1.335322,560
1.336321,736
1.337323,576
1.338323,560
1.339322,560
1.340324,608
1.341322,448
1.342322,496
1.343322,656
1.344322,672
1.345323,592
1.346323,816
1.347323,592
1.348322,656
1.349321,592
1.350322,1184
1.351323,640
1.352322,576
1.353322,576
1.354322,816
1.355324,528
1.356322,512
1.357322,560
1.358320,592
1.359323,512
1.360323,736
1.361320,672
1.362323,704
1.363322,848
1.364321,784
1.365320,640
1.366323,688
1.367323,416
1.368323,704
1.369322,560
1.370320,400
1.371322,288
1.372323,384
1.373323,496
1.374324,560
1.375324,896
1.376322,704
1.377322,576
1.378322,560
1.379324,816
1.380323,896
1.381321,592
1.382323,528
1.383322,416
1.384322,416
1.385322,784
1.386322,704
1.387322,720
1.388322,384
1.389324,560
1.390324,512
1.391320,560
1.392346,848
1.393326,480
1.394323,528
1.395320,656
1.396323,400
1.397325,512
1.398322,464
1.399319,704
1.400320,560
1.401322,528
1.402322,592
1.403324,576
1.404322,512
1.405324,432
1.406322,704
1.407322,560
1.408324,416
1.409322,512
1.410322,576
1.411324,608
1.412322,848
1.413321,704
1.414319,656
1.415322,816
1.416320,624
1.417322,688
1.418324,480
1.419323,560
1.420324,784
1.421323,944
1.422324,592
1.423322,736
1.424321,544
1.425323,656
1.426324,640
1.427324,480
1.428323,608
1.429324,704
1.430325,1424
1.431324,720
1.432323,528
1.433322,656
1.434321,736
1.435320,896
1.436323,512
1.437322,560
1.438323,720
1.439321,704
1.440323,672
1.441323,640
1.442323,464
1.443324,496
1.444322,848
1.445325,976
1.446322,656
1.447323,800
1.448320,720
1.449324,608
1.450322,560
1.451322,736
1.452322,640
1.453319,512
1.454323,576
1.455341,800
1.456333,816
1.457323,544
1.458320,576
1.459323,576
1.460322,528
1.461320,768
1.462324,592
1.463319,688
1.464324,624
1.465322,864
1.466323,528
1.467324,528
1.468321,704
1.469322,720
1.470321,656
1.471324,672
1.472321,672
1.473321,624
1.474322,528
1.475322,576
1.476322,1040
1.477324,640
1.478321,832
1.479322,800
1.480321,608
1.481322,448
1.482324,464
1.483322,400
1.484323,992
1.485322,816
1.486324,672
1.487321,688
1.488322,608
1.489322,560
1.490321,656
1.491322,816
1.492321,928
1.493322,624
1.494322,592
1.495322,784
1.496320,896
1.497322,672
1.498322,912
1.499322,688
1.500322,928
1.501322,768
1.502324,448
1.503321,1056
1.504321,752
1.505324,688
1.506322,784
1.507323,608
1.508323,768
1.509322,448
1.510323,464
1.511324,640
1.512323,816
1.513325,720
1.514321,1248
1.515322,592
1.516322,384
1.517321,688
1.518323,592
1.664323,1040
1.664967,1040
1.665405,576
1.665803,832
1.666195,768
1.666657,1520
1.667050,832
1.667441,928
1.667836,848
1.668247,640
1.668646,544
1.669037,768
1.669432,368
1.669828,688
1.670321,800
1.671323,768
1.672322,800
1.673322,688
1.674323,512
1.675322,640
1.676324,496
1.677320,800
1.678321,944
1.679323,576
1.680324,912
1.681324,784
1.682322,896
1.683323,1120
1.684322,736
1.685323,560
1.686322,608
1.687322,768
1.688322,784
1.689322,656
1.690322,848
1.691322,432
1.692321,704
1.693322,704
1.694324,704
1.695322,640
1.696323,928
1.697322,768
1.698321,672
1.699322,688
1.700319,704
1.701323,640
1.702322,768
1.703323,512
1.704319,480
1.705323,624
1.706322,512
1.707323,528
1.708323,576
1.709321,704
1.710321,944
1.711341,832
1.712329,496
1.713322,592
1.714322,592
1.715323,736
1.716321,848
1.717322,720
1.718322,1808
1.719321,656
1.720323,608
1.721324,592
1.722323,1280
1.723321,704
1.724322,704
1.725321,672
1.726322,1040
1.727324,432
1.728323,608
1.729321,1024
1.730322,672
1.731323,720
1.732323,864
1.733321,736
1.734324,480
1.735322,752
1.736322,704
1.737322,928
1.738323,576
1.739321,816
1.740322,528
1.741322,912
1.742324,672
1.743324,608
1.744321,800
1.745322,576
1.746324,464
1.747322,768
1.748324,1040
1.749323,576
1.750322,944
1.751323,528
1.752323,736
1.753321,800
1.754324,768
1.755320,912
1.756323,848
1.757324,848
1.758322,1104
1.759322,656
1.760319,688
1.761322,896
1.762320,560
1.763321,704
1.764324,1056
1.765324,592
1.766324,800
1.767322,1120
1.768322,864
1.769322,528
1.770323,736
1.771321,896
1.772324,704
1.773322,2192
1.774321,592
1.775340,944
1.776328,400
1.777326,528
1.778326,736
1.779320,864
1.780322,896
1.781324,752
1.782322,688
1.783323,800
1.784322,672
1.785323,736
1.786322,1216
1.787321,800
1.788323,784
1.789322,704
1.790322,928
1.791324,432
1.792324,464
1.793320,768
1.794322,608
1.795321,784
1.796323,832
1.797323,384
1.798322,848
1.799320,672
1.800321,640
1.801321,816
1.802322,832
1.803323,512
1.804324,544
1.805322,576
1.806321,736
1.807320,832
1.808324,576
1.809322,592
1.810320,848
1.811322,752
1.812323,1120
1.813322,928
1.814324,704
1.815321,640
1.816323,688
1.817322,720
1.818323,608
1.819322,528
1.820322,832
1.821322,816
1.822324,720
1.823323,848
1.824322,672
1.825324,544
1.826323,576
1.827323,720
1.828324,704
1.829322,1152
1.830320,704
1.831322,1200
1.832322,608
1.833322,832
1.834324,736
1.835324,800
1.836320,912
1.837323,976
1.838323,672
1.839336,720
1.840326,768
1.841323,768
1.842322,656
1.843324,704
1.844322,1280
1.845322,816
1.846324,1040
1.847322,736
1.848322,848
1.849324,720
1.850322,736
1.851322,720
1.852320,784
1.853323,688
1.854322,928
1.855324,592
1.968942,912
1.969759,784
1.970341,912
1.970893,1104
1.971440,912
1.972050,992
1.972598,1200
1.973140,1200
1.973689,1632
1.974251,688
1.974805,640
1.975354,736
1.975900,1280
1.976454,736
1.977004,688
1.977558,816
1.978106,992
1.978680,784
1.979323,624
1.980323,912
1.981321,864
1.982324,800
1.983323,896
1.984323,528
1.985322,1120
1.986321,560
1.987320,1152
1.988322,1040
1.989323,832
1.990323,688
1.991323,688
1.992322,1200
1.993322,1200
1.994321,752
1.995323,512
1.996320,736
1.997319,1088
1.998324,896
1.999322,960
2.000323,688
2.001324,528
2.002322,1168
2.003322,768
2.004321,832
2.005322,1312
2.006322,1280
2.007322,864
2.008320,832
2.009323,688
2.010322,1056
2.011322,768
2.012322,656
2.013322,688
2.014320,784
2.015322,1248
2.016323,672
2.017322,864
2.018321,800
2.019320,848
2.020322,736
2.021323,688
2.022324,720
2.023323,816
2.024323,784
2.025323,784
2.026322,848
2.027322,688
2.028322,848
2.029324,512
2.030324,416
2.031322,688
2.032347,848
2.033324,688
2.034324,896
2.035321,928
2.036324,752
2.037324,592
2.038322,640
2.039323,592
2.040323,768
2.041321,832
2.042320,992
2.043323,720
2.044323,848
2.045322,704
2.046324,688
2.047322,688
2.048322,768
2.049321,736
2.050322,464
2.051322,816
2.052322,1024
2.053322,768
2.054324,528
2.055324,672
2.056323,672
2.057323,784
2.058325,704
2.059322,1040
2.060322,768
2.061322,704
2.062322,816
2.063323,672
2.064320,1152
2.065322,768
2.066322,832
2.067322,736
2.068322,928
2.069323,848
2.070321,640
2.071321,832
2.072323,656
2.073324,896
2.074324,896
2.075321,640
2.076320,800
2.077322,576
2.078322,688
2.079321,800
2.080320,816
2.081321,848
2.082324,816
2.083322,736
2.084323,704
2.085322,640
2.086322,672
2.087323,864
2.088321,624
2.089324,784
2.090322,736
2.091319,896
2.092322,768
2.093322,656
2.094322,720
2.095322,736
2.096340,656
2.097324,592
2.098323,880
2.099322,784
2.100320,864
2.101321,960
2.102322,992
2.103322,640
2.104322,752
2.105321,784
2.106322,1072
2.107323,672
2.108323,736
2.109322,1024
2.110324,816
2.111324,752
2.112322,800
2.113322,768
2.114322,800
2.115322,688
2.116322,1152
2.117324,1280
2.118321,752
2.119322,768
2.120322,1200
2.121323,832
2.122320,896
2.123321,992
2.124321,992
2.125322,864
2.126320,912
2.127321,816
2.128321,864
2.129321,720
2.130324,640
2.131323,800
2.132321,576
2.133322,752
2.134322,784
2.135319,1120
2.136323,864
2.137322,800
2.138322,688
2.139320,864
2.140321,784
2.141324,816
2.142322,1088
2.143322,928
2.144323,992
2.145324,1600
2.146322,1008
2.147322,992
2.148322,944
2.149325,688
2.150324,800
2.151322,1168
2.152322,1264
2.153323,1616
2.154321,1296
2.155322,784
2.156322,832
2.157321,816
2.158324,816
2.159322,960
2.160333,832
2.317536,896
2.318498,784
2.319226,752
2.319937,1216
2.320646,448
2.321423,1568
2.322124,1104
2.322831,560
2.323533,448
2.324253,944
2.324963,400
2.325668,576
2.326375,864
2.327085,560
2.327794,976
2.328507,528
2.329217,896
2.329952,816
2.330666,1088
2.331377,800
2.332089,656
2.332804,912
2.333518,896
2.334234,464
2.334953,464
2.335672,592
2.336394,800
2.337320,992
2.338323,1056
2.339322,1056
2.340320,400
2.341322,992
2.342324,640
2.343324,816
2.344324,720
2.345322,976
2.346324,672
2.347320,1056
2.348323,816
2.349324,656
2.350321,800
2.351341,672
2.352328,656
2.353323,816
2.354322,1056
2.355321,848
2.356323,720
2.357323,880
2.358324,960
2.359323,816
2.360321,896
2.361322,944
2.362322,944
2.363322,960
2.364322,992
2.365321,832
2.366322,1040
2.367323,1296
2.368322,928
2.369323,1072
2.370323,832
2.371320,1040
2.372325,864
2.373322,1056
2.374322,800
2.375322,912
2.376323,736
2.377323,1024
2.378322,928
2.379322,896
2.380321,1088
2.381323,736
2.382322,864
2.383322,896
2.384321,928
2.385323,896
2.386322,672
2.387322,896
2.388322,672
2.389324,592
2.390322,784
2.391321,960
2.392322,912
2.393321,976
2.394323,800
2.395322,1120
2.396322,1088
2.397321,1088
2.398320,992
2.399323,1024
2.400321,608
2.401322,768
2.402322,912
2.403323,944
2.404322,368
2.405320,800
2.406323,912
2.407320,976
2.408323,896
2.409324,784
2.410321,832
2.411322,1088
2.412323,928
2.413320,912
2.414322,736
2.415340,464
2.416328,880
2.417322,608
2.418325,816
2.419324,784
2.420323,544
2.421322,976
2.422321,1232
2.423322,896
2.424324,816
2.425320,656
2.426323,784
2.427323,800
2.428322,1040
2.429322,944
2.430322,960
2.431319,640
2.432323,864
2.433320,1120
2.434322,1008
2.435321,800
2.436320,352
2.437320,960
2.438322,864
2.439321,1088
2.440322,912
2.441323,896
2.442320,944
2.443322,1040
2.444323,848
2.445323,784
2.446320,1104
2.447322,816
2.448321,1248
2.449321,752
2.450324,912
2.451322,832
2.452322,896
2.453321,864
2.454323,768
2.455321,864
2.456322,864
2.457321,1168
2.458322,992
2.459322,848
2.460322,800
2.461322,1072
2.462320,800
2.463322,784
2.464322,1040
2.465323,864
2.466323,912
2.476894,864
2.477125,688
2.477336,576
2.477539,352
2.477745,1232
2.477950,864
2.478160,544
2.478371,720
2.478581,512
2.478792,496
2.479341,544
2.480331,576
2.481324,720
2.482322,1040
2.483322,864
2.484323,704
2.485322,992
2.486322,704
2.487320,800
2.488320,848
2.489324,992
2.490322,736
2.491323,688
2.492324,864
2.493322,912
2.494322,864
2.495321,960
2.496320,992
2.497322,1072
2.498322,1072
2.499324,928
2.500323,528
2.501322,976
2.502322,960
2.503322,992
2.504321,960
2.505323,992
2.506322,1200
2.507322,928
2.508323,1088
2.509323,1248
2.510322,912
2.511323,928
2.664581,304
2.665120,544
2.665466,576
2.665769,608
2.666062,528
2.666421,736
2.666706,736
2.666991,544
2.667273,1184
2.667582,960
2.667869,864
2.668323,768
2.669323,928
2.670323,944
2.671322,1104
2.672341,320
2.673327,848
2.674323,864
2.675323,1120
2.676323,336
2.677322,1072
2.678323,1040
2.679322,672
2.680322,560
2.681322,848
2.682322,832
2.683323,880
2.684323,784
2.685321,592
2.686322,880
2.687322,880
2.688321,832
2.689323,960
2.690322,832
2.691323,896
2.692322,288
2.693321,992
2.694320,672
2.695322,656
2.696324,704
2.697324,816
2.698324,832
2.699321,768
2.700323,912
2.701323,1216
2.702324,880
2.703324,1040
2.704324,848
2.705322,1104
2.706322,1056
2.707322,768
2.708323,1568
2.709322,976
2.710323,1312
2.711323,800
2.712322,912
2.713322,896
2.714323,976
2.715322,1248
2.716322,912
2.717322,912
2.718323,736
2.719322,784
2.720322,784
2.721322,1040
2.722322,880
2.723324,848
2.724322,704
2.725322,784
2.726322,832
2.727322,1088
2.728322,1040
2.729322,912
2.730321,576
2.731322,848
2.732322,736
2.733321,544
2.734324,832
2.735322,832
2.736339,448
2.737331,400
2.738325,736
2.739323,720
2.740321,320
2.741324,1024
2.742322,720
2.743322,896
2.744322,800
2.745322,704
2.746324,816
2.747324,912
2.748323,1040
2.749322,1104
2.750322,720
2.751322,720
2.752322,848
2.753324,928
2.754325,848
2.755322,736
2.756322,576
2.757323,816
2.758323,1024
2.759322,928
2.760323,848
2.761320,464
2.762322,704
2.763322,720
2.764321,800
2.765323,944
2.766322,656
2.767323,896
2.768322,800
2.769322,736
2.770324,816
2.771324,736
2.772320,688
2.773322,800
2.774322,816
2.775322,704
2.776322,816
2.777322,800
2.778322,944
2.779323,800
2.780323,928
2.781323,848
2.782321,672
2.783324,912
2.784321,736
2.785323,944
2.786324,848
2.787320,528
2.788321,256
2.789323,960
2.790320,736
2.791322,720
2.792319,528
2.793323,656
2.794320,704
2.795321,720
2.796322,1088
2.797323,672
2.798322,624
2.799323,784
2.800340,496
2.801327,928
2.802324,928
2.803322,704
2.804324,400
2.805322,688
2.806323,656
2.807322,848
2.808322,672
2.809325,928
2.810320,688
2.811322,736
2.812322,816
2.813322,432
2.814322,704
2.815322,928
2.816323,704
2.817322,560
2.818324,896
2.819323,912
2.820324,640
2.821323,768
2.822322,640
2.823323,832
2.824319,848
2.825322,672
2.826322,928
2.827322,944
2.828321,1024
2.829324,640
2.830322,688
2.831324,1056
2.832322,720
2.833321,592
2.834322,768
2.835323,848
2.836322,992
2.837322,768
2.838323,944
2.839322,848
2.840322,608
2.841324,704
2.842323,768
2.843323,720
2.844321,464
2.845322,720
2.846322,592
2.847321,816
2.848323,800
2.849323,656
2.850321,416
2.851322,848
2.852322,592
2.853323,640
2.854322,576
2.855324,976
2.856322,1184
2.963319,944
2.964004,912
2.964472,496
2.964916,576
2.965356,848
2.965863,608
2.966304,1040
2.966741,688
2.967179,832
2.967639,704
2.968077,1200
2.968521,640
2.968963,576
2.969406,928
2.969847,912
2.970321,912
2.971324,704
2.972324,544
2.973322,736
2.974322,512
2.975322,672
2.976324,688
2.977323,672
2.978322,672
2.979322,704
2.980321,848
2.981322,1040
2.982322,528
2.983321,448
2.984322,544
2.985321,816
2.986321,448
2.987322,656
2.988322,704
2.989321,384
2.990322,656
2.991321,608
2.992350,544
2.993331,1056
2.994326,800
2.995322,528
2.996323,688
2.997322,416
2.998324,560
2.999321,1072
3.000322,480
3.001322,432
3.002324,576
3.003320,464
3.004321,512
3.005321,544
3.006320,320
3.007324,544
3.008323,864
3.009322,528
3.010322,544
3.011320,480
3.012322,720
3.013323,768
3.014323,688
3.015323,432
3.016322,96
3.017323,400
3.018321,976
3.019323,592
3.020322,352
3.021324,640
3.022323,400
3.023321,384
3.024323,672
3.025324,352
3.026322,784
3.027323,656
3.028323,656
3.029321,320
3.030323,416
3.031322,624
3.032322,528
3.033322,384
3.034321,432
3.035322,928
3.036324,768
3.037321,592
3.038322,656
3.039324,448
3.040323,416
3.041323,912
3.042323,560
3.043322,416
3.044324,560
3.045322,528
3.046322,336
3.047320,944
3.048322,944
3.049322,800
3.050322,560
3.051321,720
3.052322,352
3.053323,384
3.054323,400
3.055342,1568
3.056323,544
3.057321,384
3.058320,704
3.059321,656
3.060324,736
3.061322,768
3.062322,480
3.063322,368
3.064322,624
3.065322,512
3.066323,544
3.067323,544
3.068324,976
3.069322,800
3.070321,96
3.071321,384
3.072322,848
3.073324,928
3.074322,480
3.075320,400
3.076321,560
3.077322,336
3.078325,704
3.079322,560
3.080322,384
3.081322,416
3.082322,272
3.083323,448
3.084325,720
3.085324,656
3.086322,704
3.087322,512
3.088322,704
3.089320,528
3.090322,544
3.091323,768
3.092319,720
3.093323,384
3.094322,592
3.095322,512
3.096322,1040
3.097323,352
3.098320,608
3.099321,1072
3.100323,896
3.101323,336
3.102322,512
3.103322,352
3.104321,288
3.105323,528
3.106323,816
3.107322,736
3.108322,480
3.109322,592
3.110321,848
3.111321,336
3.112322,480
3.113321,352
3.114322,496
3.115324,608
3.116322,528
3.117320,480
3.118323,496
3.119337,896
3.120325,1072
3.121323,368
3.122322,672
3.123322,448
3.124323,496
3.125320,512
3.126323,1232
3.127322,800
3.128322,704
3.129321,752
3.130323,384
3.131321,464
3.132322,432
3.133321,560
3.134323,640
3.135323,976
3.136322,512
3.137323,560
3.138324,544
3.139324,464
3.140323,464
3.141321,320
3.142322,320
3.143323,720
3.144321,432
3.145322,320
3.146322,752
3.147324,928
3.148322,448
3.149322,688
3.150321,576
3.151322,656
3.152323,784
3.153323,464
3.154323,672
3.315860,1072
3.316726,1296
3.317353,432
3.317952,752
3.318551,496
3.319209,592
3.319804,704
3.320398,576
3.320990,576
3.321602,592
3.322192,480
3.322789,848
3.323384,896
3.323978,864
3.324576,672
3.325172,400
3.325772,432
3.326397,512
3.326991,656
3.327594,560
3.328323,464
3.329322,576
3.330324,448
3.331322,544
3.332324,592
3.333321,720
3.334323,512
3.335323,384
3.336320,640
3.337324,592
3.338322,464
3.339321,432
3.340323,560
3.341323,784
3.342322,544
3.343324,304
3.344322,512
3.345321,336
3.346322,608
3.347323,432
3.348323,736
3.349323,448
3.350324,208
3.351324,544
3.352321,896
3.353322,352
3.354321,432
3.355322,416
3.356320,544
3.357322,528
3.358322,528
3.359322,608
3.360321,656
3.361322,560
3.362323,288
3.363322,384
3.364320,736
3.365322,592
3.366322,560
3.367323,720
3.368320,544
3.369322,464
3.370322,528
3.371322,528
3.372323,560
3.373324,656
3.374323,608
3.375351,544
3.376329,1040
3.377324,464
3.378324,400
3.379323,224
3.380320,592
3.381323,640
3.382322,896
3.383322,912
3.384321,688
3.385322,576
3.386322,112
3.387322,592
3.388322,560
3.389321,528
3.390322,800
3.391323,320
3.392322,528
3.393323,528
3.394322,928
3.395324,416
3.396322,592
3.397324,464
3.398322,704
3.399322,688
3.400323,608
3.401322,400
3.402322,560
3.403324,352
3.404324,464
3.405323,576
3.406322,416
3.407323,704
3.408322,256
3.409322,464
3.410322,320
3.411322,1072
3.412321,512
3.413322,352
3.414323,416
3.415323,528
3.416322,400
3.417322,464
3.418320,672
3.419323,464
3.420324,368
3.421322,448
3.422320,576
3.423324,768
3.424322,400
3.425322,640
3.426322,736
3.427323,480
3.428323,448
3.429322,544
3.430321,448
3.431321,640
3.432322,1040
3.433322,592
3.434322,576
3.435324,400
3.436321,512
3.437322,528
3.438322,720
3.439339,1040
3.440325,800
3.441324,912
3.442319,464
3.443323,608
3.444320,656
3.445323,304
3.446321,688
3.447322,512
3.448322,320
3.449322,704
3.450322,768
3.451322,800
3.452322,496
3.453322,416
3.454324,448
3.455323,480
3.456322,448
3.457322,560
3.458322,560
3.459324,560
3.460322,640
3.461322,272
3.462322,560
3.463323,544
3.464323,480
3.465322,672
3.466323,1008
3.467322,560
3.468323,640
3.469324,656
3.470322,528
3.471320,512
3.472324,496
3.473322,640
3.474324,672
3.475323,384
3.476322,592
3.477324,928
3.478322,560
3.479324,256
3.480320,544
3.481324,704
3.482324,464
3.483323,528
3.484324,800
3.485323,688
3.486321,768
3.487322,432
3.488324,528
3.489323,928
3.490320,656
3.491323,768
3.492322,608
3.493323,544
3.494322,592
3.495322,464
3.496323,704
3.497322,512
3.498322,400
3.499324,832
3.500321,432
3.501323,464
3.502323,432
3.503337,752
3.504327,352
3.505324,368
3.506323,720
3.507322,592
3.655050,896
3.656072,912
3.656865,864
3.657630,512
3.658391,576
3.659214,560
3.659969,784
3.660722,1376
3.661476,640
3.662250,816
3.663005,864
3.663763,1072
3.664523,576
3.665287,1104
3.666042,1104
3.666806,800
3.667567,592
3.668348,544
3.669109,928
3.669873,816
3.670637,928
3.671402,656
3.672163,848
3.672927,464
3.673695,416
3.674462,992
3.675226,800
3.675997,560
3.676768,704
3.677538,944
3.678308,592
3.679074,528
3.679844,544
3.680659,304
3.681433,1040
3.682322,752
3.683322,768
3.684324,608
3.685325,480
3.686322,736
3.687320,608
3.688323,544
3.689323,432
3.690323,736
3.691321,816
3.692322,656
3.693320,560
3.694320,496
3.695343,624
3.696329,640
3.697324,608
3.698322,736
3.699320,576
3.700322,832
3.701323,640
3.702323,576
3.703324,656
3.704323,576
3.705321,480
3.706321,464
3.707324,576
3.708323,432
3.709322,544
3.710325,336
3.711324,656
3.721604,640
3.721829,608
3.722037,720
3.722245,688
3.722457,896
3.722666,608
3.722873,704
3.723086,896
3.723304,640
3.723513,944
3.724322,400
3.725322,688
3.726323,448
3.727322,656
3.728321,528
3.729322,608
3.730321,608
3.731323,560
3.732322,672
3.733322,576
3.734321,832
3.735323,480
3.736322,624
3.737323,672
3.738322,432
3.739321,672
3.740322,608
3.741324,432
3.742322,448
3.743322,800
3.744321,640
3.745323,528
3.746322,448
3.747322,704
3.748322,704
3.749325,864
3.750322,912
3.751322,448
3.752323,688
3.753322,672
3.754325,608
3.755323,464
3.756322,592
3.757323,592
3.758324,496
3.759340,672
3.760328,688
3.761324,800
3.762322,896
3.763322,992
3.764321,720
3.765322,592
3.766322,400
3.767322,432
3.768323,624
3.769322,640
3.770323,640
3.771321,656
3.772322,512
3.773321,704
3.774321,672
3.775323,480
3.776322,672
3.777322,464
3.778322,480
3.779322,624
3.780323,688
3.781321,512
3.782322,736
3.783322,672
3.784322,480
3.785321,608
3.786322,384
3.787323,1024
3.788324,672
3.789322,944
3.790324,640
3.791320,688
3.792322,592
3.793323,544
3.794322,576
3.795321,608
3.796321,832
3.797322,992
3.798321,640
3.799322,768
3.800322,1104
3.801323,848
3.802322,448
3.803321,624
3.804321,544
3.805320,736
3.806323,656
3.807322,992
3.808321,688
3.809321,672
3.810323,528
3.811325,288
3.812320,800
3.813323,640
3.814322,816
3.815322,576
3.816323,592
3.817321,992
3.818322,848
3.819322,400
3.820322,560
3.821323,448
3.822324,656
3.823342,784
3.824328,848
3.825322,448
3.826322,800
3.827322,528
3.828323,816
3.829322,736
3.830321,640
3.831323,736
3.832322,608
3.833321,624
3.834322,496
3.835323,480
3.836321,816
3.837322,432
3.838322,672
3.839324,656
3.840323,592
3.841323,368
3.842322,640
3.843321,640
3.844322,896
3.845324,928
3.846323,640
3.847322,656
3.848322,848
3.956901,896
3.957521,800
3.957888,1040
3.958223,560
3.958570,544
3.958969,752
3.959310,848
3.959644,688
3.959982,496
3.960339,848
3.960678,416
3.961017,816
3.961363,800
3.962322,720
3.963323,1152
3.964322,512
3.965323,608
3.966322,416
3.967324,592
3.968320,608
3.969321,528
3.970321,352
3.971322,448
3.972323,704
3.973321,720
3.974322,688
3.975323,720
3.976322,528
3.977321,768
3.978322,928
3.979323,464
3.980322,528
3.981322,608
3.982321,944
3.983322,416
3.984323,944
3.985321,784
3.986320,768
3.987323,784
3.988322,784
3.989322,448
3.990324,784
3.991324,576
3.992321,544
3.993323,640
3.994323,656
3.995323,640
3.996322,752
3.997322,736
3.998321,848
3.999323,560
4.000323,528
4.001322,640
4.002322,544
4.003324,560
4.004320,1024
4.005323,608
4.006323,544
4.007323,608
4.008322,1104
4.009323,320
4.010322,688
4.011322,512
4.012322,832
4.013322,816
4.014323,560
4.015530,544
4.016331,640
4.017322,480
4.018321,576
4.019322,672
4.020323,576
4.021321,704
4.022321,672
4.023321,704
4.024321,480
4.025324,432
4.026322,800
4.027322,720
4.028322,752
4.029322,800
4.030320,576
4.031324,576
4.032323,592
4.033324,672
4.034324,608
4.035323,560
4.036324,576
4.037323,464
4.038322,464
4.039324,544
4.040322,592
4.041321,640
4.042323,672
4.043323,448
4.044322,912
4.045322,768
4.046323,560
4.047321,640
4.048322,704
4.049324,640
4.050322,704
4.051321,592
4.052323,848
4.053320,480
4.054323,864
4.055320,768
4.056323,592
4.057322,784
4.058322,512
4.059321,560
4.060320,480
4.061321,608
4.062322,688
4.063322,816
4.064324,544
4.065323,576
4.066322,704
4.067323,1184
4.068324,656
4.069323,800
4.070324,720
4.071320,752
4.072322,528
4.073322,544
4.074322,1056
4.075321,560
4.076322,768
4.077322,544
4.078322,544
4.079322,656
4.080338,864
4.081327,256
4.082325,400
4.083322,576
4.084322,1056
4.085322,672
4.086321,512
4.087322,560
4.088322,432
4.089323,464
4.090323,512
4.091321,672
4.092322,1056
4.093323,512
4.094323,816
4.095322,848
4.096321,640
4.097322,608
4.098323,560
4.099322,432
4.100322,784
4.101320,672
4.102322,432
4.103321,576
4.104322,1024
4.105323,560
4.106322,544
4.107324,480
4.108324,832
4.109324,656
4.110323,704
4.111322,512
4.112322,848
4.113321,720
4.114324,576
4.115323,624
4.116322,736
4.117324,576
4.118321,656
4.119324,848
4.120322,672
4.121322,480
4.122324,544
4.123322,608
4.124322,560
4.125322,528
4.126320,720
4.127322,720
4.128322,688
4.129322,704
4.130324,512
4.131321,512
4.132322,736
4.133321,800
4.134323,784
4.135321,672
4.136322,704
4.137321,640
4.138322,496
4.139322,544
4.140321,912
4.141323,816
4.142321,576
4.143322,1648
4.144337,1824
4.145328,720
4.146328,416
4.147321,656
4.148322,896
4.302212,560
4.303005,496
4.303541,704
4.304032,464
4.304524,848
4.305079,960
4.305573,560
4.306062,528
4.306558,400
4.307064,672
4.307559,384
4.308049,768
4.308546,928
4.309039,832
4.309535,528
4.310029,496
4.310528,1040
4.311322,1104
4.312322,800
4.313323,608
4.314321,816
4.315324,544
4.316323,960
4.317324,672
4.318322,480
4.319322,688
4.320322,528
4.321323,768
4.322323,608
4.323323,656
4.324322,1104
4.325322,736
4.326323,784
4.327322,672
4.328323,560
4.329322,736
4.330322,768
4.331323,544
4.332323,608
4.333321,960
4.334322,960
4.335322,656
4.336342,704
4.337326,768
4.338325,768
4.339322,592
4.340322,976
4.341318,880
4.342322,512
4.343323,528
4.344323,768
4.345323,672
4.346322,656
4.347322,864
4.348322,480
4.349320,656
4.350322,576
4.351321,976
4.352323,736
4.353321,768
4.354322,816
4.355321,928
4.356323,816
4.357324,448
4.358323,720
4.359321,704
4.360321,832
4.361324,784
4.362323,720
4.363322,704
4.364323,656
4.365323,800
4.366322,608
4.367323,736
4.368322,768
4.369322,896
4.370322,544
4.371322,736
4.372322,928
4.373322,1152
4.374323,624
4.375323,672
4.376322,928
4.377323,752
4.378322,880
4.379322,928
4.380322,832
4.381322,752
4.382322,896
4.383321,720
4.384324,288
4.385322,640
4.386322,656
4.387322,688
4.388322,976
4.389320,592
4.390321,528
4.391324,688
4.392324,672
4.393323,640
4.394321,560
4.395324,672
4.396321,688
4.397322,1024
4.398324,848
4.399322,816
4.400340,784
4.401323,736
4.402322,720
4.403322,928
4.404322,816
4.405320,1024
4.406322,752
4.407321,560
4.408322,800
4.409322,656
4.410324,608
4.411323,384
4.412322,624
4.413321,704
4.414322,912
4.415322,848
4.416323,816
4.417322,912
4.418322,528
4.419321,768
4.420323,1120
4.421322,736
4.422321,736
4.423321,864
4.424323,800
4.425322,704
4.426323,480
4.427322,912
4.428324,672
4.429322,832
4.430322,800
4.431322,672
4.432322,720
4.433323,688
4.434322,720
4.435324,608
4.436325,672
4.437321,512
4.438321,704
4.439323,560
4.440323,608
4.441322,864
4.442322,752
4.443323,816
4.444324,608
4.445322,544
4.446324,448
4.447320,672
4.448323,688
4.449324,560
4.450321,784
4.451324,704
4.452321,896
4.453321,608
4.454321,800
4.455322,576
4.456323,720
4.457323,640
4.458323,800
4.459323,896
4.460322,576
4.461322,928
4.462324,752
4.463321,592
4.464338,704
4.465329,512
4.466323,512
4.467324,688
4.468325,672
4.469324,800
4.470322,544
4.471322,640
4.472320,800
4.473322,784
4.474323,1040
4.475322,816
4.476321,512
4.477320,1088
4.478323,736
4.479323,896
4.480322,896
4.481324,688
4.482323,832
4.483323,656
4.484322,896
4.485322,784
4.486323,608
4.487319,768
4.488323,800
4.489321,720
4.490321,640
4.491324,640
4.492323,560
4.493323,640
4.652846,1248
4.653760,800
4.654434,592
4.655204,720
4.655860,640
4.656573,720
4.657216,688
4.657858,592
4.658504,912
4.659166,672
4.659812,1200
4.660459,512
4.661101,592
4.661753,912
4.662400,736
4.663046,1184
4.663695,1584
4.664365,688
4.665015,736
4.665670,240
4.666317,1568
4.666970,1504
4.667626,784
4.668322,736
4.669322,656
4.670323,720
4.671320,960
4.672323,912
4.673321,656
4.674321,848
4.675322,832
4.676322,752
4.677322,1120
4.678320,928
4.679324,672
4.680322,896
4.681321,960
4.682324,544
4.683322,976
4.684323,800
4.685323,816
4.686322,704
4.687320,1024
4.688323,864
4.689322,608
4.690322,640
4.691323,608
4.692321,816
4.693324,848
4.694321,640
4.695323,848
4.696323,848
4.697323,704
4.698322,944
4.699322,1024
4.700323,784
4.701321,784
4.702322,912
4.703323,1120
4.704321,816
4.705321,960
4.706322,784
4.707322,608
4.708322,960
4.709323,736
4.710322,976
4.711321,864
4.712322,720
4.713322,912
4.714322,864
4.715322,720
4.716322,1072
4.717321,912
4.718320,784
4.719339,752
4.720326,464
4.721323,704
4.722323,800
4.723320,896
4.724324,544
4.725323,704
4.726322,672
4.727322,928
4.728324,688
4.729321,800
4.730321,880
4.731322,816
4.732324,880
4.733321,816
4.734323,720
4.735324,784
4.736322,1088
4.737324,944
4.738323,928
4.739322,720
4.740321,464
4.741323,560
4.742321,720
4.743324,736
4.744324,960
4.745324,896
4.746324,736
4.747321,864
4.748325,784
4.749320,752
4.750321,672
4.751318,896
4.752322,704
4.753322,672
4.754322,720
4.755322,992
4.756322,736
4.757322,576
4.758322,800
4.759324,928
4.760323,832
4.761322,784
4.762320,1104
4.763324,688
4.764323,896
4.765322,960
4.766321,944
4.767323,752
4.768322,816
4.769320,784
4.770324,736
4.771320,768
4.772322,512
4.773321,672
4.774322,736
4.775321,800
4.776323,960
4.777321,768
4.778322,736
4.779322,768
4.780323,688
4.781322,1056
4.782323,704
4.783335,304
4.784327,560
4.785323,816
4.786322,912
4.787322,944
4.788322,448
4.789324,1536
4.790323,1152
4.791322,720
4.792324,864
4.793321,848
4.794321,832
4.795322,832
4.796322,656
4.797322,816
4.798324,704
4.799321,912
4.800324,816
4.801321,704
4.802324,624
4.803322,736
4.804323,768
4.805322,800
4.806324,832
4.807323,832
4.808323,848
4.809322,736
4.810323,928
4.811320,1216
4.812324,736
4.813322,720
4.814322,768
4.815321,976
4.816323,768
4.817321,864
4.818322,672
4.819323,832
4.820321,640
4.821322,848
4.822324,720
4.823322,1040
4.824323,912
4.825323,896
4.826320,864
4.827324,768
4.828324,960
4.829324,912
4.830324,816
4.831325,880
4.832322,896
4.833324,736
4.834322,960
4.835323,992
4.836324,864
4.837321,896
4.838324,592
4.839320,944
4.840322,976
4.841321,864
4.842319,704
4.843324,960
4.844322,832
5.001816,960
5.003865,1216
5.004852,768
5.005704,400
5.006519,816
5.007394,816
5.008198,928
5.009004,800
5.009814,992
5.010641,816
5.011450,928
5.012256,1008
5.013065,768
5.013875,800
5.014689,896
5.015502,1072
5.022842,416
5.023078,912
5.023291,576
5.023498,880
5.023710,448
5.023921,1056
5.024128,688
5.024349,960
5.024558,640
5.024770,976
5.025323,880
5.026321,784
5.027321,1024
5.028321,512
5.029323,1184
5.030322,1200
5.031321,848
5.032321,1040
5.033321,896
5.034324,992
5.035322,912
5.036323,976
5.037321,864
5.038323,1328
5.039344,544
5.040328,1072
5.041322,1152
5.042322,864
5.043323,912
5.044322,816
5.045324,944
5.046323,944
5.047322,720
5.048321,848
5.049321,944
5.050322,832
5.051321,1168
5.052322,656
5.053322,752
5.054321,864
5.055324,592
5.056322,1040
5.057322,1088
5.058323,1040
5.059322,928
5.060324,560
5.061322,800
5.062324,912
5.063322,912
5.064322,1088
5.065322,688
5.066323,960
5.067323,832
5.068320,1024
5.069324,1040
5.070323,864
5.071320,704
5.072322,848
5.073324,544
5.074322,864
5.075322,960
5.076320,448
5.077322,672
5.078322,928
5.079322,784
5.080322,1488
5.081322,688
5.082320,800
5.083325,816
5.084322,832
5.085323,1200
5.086322,1200
5.087320,720
5.088323,1216
5.089322,784
5.090321,976
5.091320,704
5.092322,432
5.093323,976
5.094322,1040
5.095323,784
5.096323,1104
5.097324,976
5.098322,832
5.099321,768
5.100321,976
5.101324,1024
5.102324,928
5.103343,448
5.104327,816
5.105325,896
5.106323,912
5.107322,816
5.108322,528
5.109323,928
5.110322,944
5.111322,1280
5.112323,1216
5.113324,848
5.114323,1472
5.115322,1312
5.116320,560
5.117324,976
5.118323,1280
5.119322,960
5.120321,1776
5.121322,1600
5.122321,544
5.123322,1232
5.124322,128
5.125323,944
5.126325,864
5.127323,448
5.128324,912
5.129324,1248
5.130322,944
5.131322,960
5.132323,1152
5.133322,832
5.134323,1440
5.135321,720
5.136323,784
5.137321,864
5.138323,976
5.139323,960
5.140320,528
5.141324,672
5.142322,960
5.143324,816
5.144323,864
5.145323,720
5.146323,896
5.147320,832
5.148322,800
5.149323,800
5.150322,864
5.151322,1040
5.152322,896
5.153322,816
5.154322,864
5.155322,720
5.156323,448
5.157320,720
5.158322,736
5.159322,832
5.160320,704
5.161322,912
5.162323,880
5.163322,1056
5.164324,864
5.165322,880
5.166323,752
5.167336,896
5.168330,736
5.169326,864
5.170321,832
5.171322,736
5.172322,560
5.173324,848
5.174323,1024
5.175322,768
5.176321,816
5.177322,960
5.178322,1056
5.179323,944
5.180321,976
5.181322,832
5.182324,960
5.183321,688
5.184323,864
5.185322,976
5.186324,1024
5.187322,752
5.188322,320
5.189321,848
5.190324,880
5.191323,1072
5.192322,1024
5.193322,800
5.194323,832
5.195322,832
5.196323,816
5.197320,800
5.198323,864
5.350475,688
5.351089,688
5.351497,352
5.351862,672
5.352224,784
5.352664,336
5.353031,544
5.353399,720
5.353766,544
5.354150,896
5.354525,784
5.354893,672
5.355261,944
5.355636,912
5.356322,816
5.357325,848
5.358321,880
5.359348,416
5.360324,688
5.361323,784
5.362322,704
5.363322,640
5.364323,448
5.365322,592
5.366321,432
5.367323,912
5.368324,848
5.369324,928
5.370322,576
5.371322,656
5.372322,592
5.373323,864
5.374323,688
5.375322,608
5.376323,800
5.377323,720
5.378322,528
5.379323,656
5.380323,704
5.381323,912
5.382320,672
5.383321,656
5.384323,656
5.385322,1040
5.386323,688
5.387321,576
5.388323,704
5.389323,656
5.390323,496
5.391323,608
5.392322,448
5.393323,720
5.394322,464
5.395322,416
5.396324,480
5.397321,576
5.398323,784
5.399322,496
5.400321,416
5.401320,320
5.402322,464
5.403321,368
5.404322,560
5.405322,544
5.406320,640
5.407321,448
5.408324,800
5.409323,720
5.410319,784
5.411323,816
5.412322,528
5.413320,704
5.414324,672
5.415321,608
5.416322,560
5.417320,544
5.418322,688
5.419323,608
5.420322,656
5.421324,912
5.422324,688
5.423391,480
5.424328,736
5.425323,608
5.426324,864
5.427323,640
5.428321,448
5.429322,720
5.430322,448
5.431322,480
5.432322,400
5.433320,560
5.434321,480
5.435322,528
5.436322,384
5.437323,720
5.438324,768
5.439324,688
5.440324,912
5.441322,608
5.442323,592
5.443323,400
5.444322,480
5.445322,560
5.446322,640
5.447321,432
5.448325,816
5.449322,640
5.450322,320
5.451320,560
5.452324,768
5.453322,480
5.454321,752
5.455322,512
5.456323,544
5.457322,464
5.458322,352
5.459323,544
5.460322,352
5.461321,368
5.462323,592
5.463322,704
5.464322,560
5.465322,864
5.466322,688
5.467323,592
5.468322,352
5.469323,592
5.470319,192
5.471322,528
5.472322,448
5.473323,672
5.474323,1152
5.475321,432
5.476324,784
5.477322,1248
5.478321,864
5.479322,352
5.480323,544
5.481322,544
5.482322,544
5.483320,736
5.484324,608
5.485320,320
5.486323,608
5.487372,608
5.488338,544
5.489326,800
5.490322,448
5.491322,256
5.492322,560
5.493322,400
5.494321,608
5.495323,720
5.496323,624
5.497320,656
5.498322,560
5.499321,352
5.500323,480
5.501324,720
5.502323,800
5.503324,800
5.504324,656
5.505321,592
5.506323,672
5.507324,688
5.508322,480
5.509322,320
5.510323,672
5.511322,592
5.512322,688
5.513322,768
5.514320,352
5.515322,688
5.516321,448
5.517322,480
5.518324,544
5.519320,576
5.520321,640
5.521322,464
5.522320,656
5.523321,704
5.524323,960
5.525322,896
5.526322,672
5.527322,1040
5.528323,656
5.529324,848
5.530322,464
5.531321,432
5.532320,928
5.533323,576
5.534322,1072
5.535323,512
5.536322,544
5.537324,704
5.538323,1168
5.539322,640
5.540322,448
5.541324,704
5.651219,1024
5.652016,960
5.652575,704
5.653094,528
5.653614,912
5.654194,736
5.654715,160
5.655231,784
5.655754,1216
5.656292,384
5.656815,784
5.657344,784
5.657867,656
5.658396,528
5.658921,496
5.659445,464
5.659968,480
5.660514,672
5.661324,720
5.662321,736
5.663322,336
5.664322,528
5.665322,400
5.666323,576
5.667323,688
5.668323,736
5.669323,464
5.670324,352
5.671320,592
5.672323,608
5.673322,688
5.674322,560
5.675322,480
5.676324,432
5.677323,400
5.678322,544
5.679341,640
5.680327,784
5.681324,448
5.682321,608
5.683321,592
5.684322,656
5.685324,512
5.686321,512
5.687321,448
5.688323,480
5.689321,480
5.690322,416
5.691322,544
5.692322,608
5.693322,576
5.694321,368
5.695322,528
5.696323,512
5.697323,656
5.698323,336
5.699322,416
5.700323,448
5.701322,576
5.702322,448
5.703324,528
5.704322,1216
5.705322,576
5.706319,352
5.707322,512
5.708324,560
5.709321,480
5.710322,832
5.711321,2112
5.712322,1296
5.713323,560
5.714324,624
5.715323,864
5.716324,576
5.717323,688
5.718323,640
5.719321,928
5.720321,1600
5.721320,720
5.722323,736
5.723323,736
5.724324,560
5.725322,1024
5.726322,736
5.727322,384
5.728323,400
5.729322,400
5.730322,1200
5.731320,560
5.732323,592
5.733322,560
5.734319,640
5.735323,384
5.736323,576
5.737320,960
5.738323,608
5.739322,576
5.740323,608
5.741324,800
5.742322,384
5.743337,560
5.744325,560
5.745324,512
5.746323,432
5.747323,512
5.748323,448
5.749324,592
5.750322,528
5.751321,576
5.752322,448
5.753322,352
5.754324,256
5.755322,432
5.756323,1056
5.757322,1024
5.758322,672
5.759323,400
5.760321,656
5.761325,304
5.762323,640
5.763321,448
5.764321,720
5.765323,176
5.766321,464
5.767322,400
5.768320,288
5.769322,400
5.770322,656
5.771324,496
5.772322,448
5.773321,480
5.774322,672
5.775323,304
5.776322,400
5.777321,576
5.778322,416
5.779321,848
5.780323,1056
5.781322,816
5.782323,496
5.783323,416
5.784321,592
5.785322,512
5.786322,1168
5.787323,528
5.788325,480
5.789321,560
5.790322,400
5.791323,352
5.792323,1088
5.793322,704
5.794321,864
5.795322,608
5.796323,496
5.797324,768
5.798322,608
5.799323,432
5.800322,416
5.801324,480
5.802323,592
5.803321,672
5.804322,704
5.805322,608
5.806323,544
5.807341,592
5.808330,880
5.809324,672
5.810322,448
5.811324,656
5.812322,544
5.813320,720
5.814322,336
5.815324,688
5.816324,688
5.817322,928
5.818322,576
5.819323,480
5.820322,672
5.821323,1296
5.822324,592
5.823321,1056
5.824323,768
5.825324,608
5.826322,720
5.827323,848
5.828323,464
5.829322,304
5.830322,720
5.831321,896
5.832323,560
5.833323,704
5.834321,608
5.835323,736
5.836322,960
5.837321,432
5.838323,592
5.839323,544
5.840323,704
5.841323,576
5.842322,224
6.000989,640
6.001940,864
6.002647,976
6.003325,1632
6.004000,1792
6.004748,256
6.005422,624
6.006091,928
6.006764,1856
6.007459,1200
6.008130,800
6.008802,448
6.009479,1088
6.010155,1360
6.010834,2336
6.011508,2240
6.012187,800
6.012888,912
6.013564,896
6.014239,448
6.014923,608
6.015604,672
6.016280,752
6.016962,1280
6.017646,1248
6.018330,1728
6.019324,1312
6.020322,1024
6.021322,848
6.022323,448
6.023322,304
6.024322,704
6.025323,400
6.026321,528
6.027324,496
6.028322,592
6.029320,576
6.030324,2400
6.031322,3648
6.032322,2368
6.033322,480
6.034321,1488
6.035320,2608
6.036323,3232
6.037320,1232
6.038322,576
6.039322,1424
6.040322,608
6.041321,6033
6.042321,6849
6.043322,2544
6.044321,4369
6.045324,8274
6.046324,3920
6.047321,1744
6.048322,2176
6.049322,6721
6.050321,5937
6.051322,3104
6.052323,768
6.053322,944
6.054323,944
6.055322,720
6.056321,624
6.057321,720
6.058321,560
6.059322,624
6.060322,1168
6.061320,832
6.062324,720
6.063369,736
6.064326,560
6.065320,1552
6.066324,1104
6.067322,640
6.068322,928
6.069324,528
6.070323,736
6.071324,912
6.072322,464
6.073320,464
6.074322,928
6.075323,1568
6.076322,736
6.077323,2304
6.078323,3120
6.079322,3280
6.080320,672
6.081322,480
6.082322,5057
6.083323,2816
6.084322,1360
6.085322,688
6.086323,2864
6.087322,6065
6.088322,8177
6.089323,2592
6.090321,5937
6.091322,5729
6.092324,2448
6.093322,2080
6.094323,1856
6.095321,1280
6.096323,1040
6.097322,1104
6.098322,1808
6.099324,2048
6.100324,1456
6.101321,560
6.102324,10434
6.103321,16003
6.104324,9378
6.105322,2112
6.106320,6625
6.107321,6321
6.108323,5073
6.109322,1040
6.110322,1776
6.111324,4897
6.112323,4225
6.113323,4401
6.114322,1760
6.115323,4321
6.116322,8177
6.117321,6929
6.118320,6945
6.119324,16404
6.120321,7697
6.121324,1760
6.122323,5393
6.123323,416
6.124321,720
6.125322,3776
6.126323,2464
6.127391,992
6.128325,1216
6.129320,928
6.130323,1712
6.131323,624
6.132322,976
6.133322,1088
6.134320,3008
6.135323,1696
6.136324,640
6.137324,5089
6.138322,11170
6.139321,4609
6.140320,4545
6.141319,2512
6.142322,2320
6.143322,1344
6.144320,1152
6.145320,1408
6.146322,4145
6.147324,784
6.148324,1024
6.149322,848
6.150323,1088
6.151323,5649
6.152322,12291
6.153324,10786
6.154324,4593
6.155323,4785
6.156322,800
6.157321,544
6.158321,576
6.159321,4193
6.160322,1792
6.161321,1536
6.162323,784
6.163322,3664
6.164322,720
6.165323,8386
6.166321,1488
6.167323,4225
6.168323,8930
6.169320,6785
6.170324,1328
6.171322,14227
6.172321,12307
6.173323,2144
6.174323,1264
6.175323,22037
6.176320,21253
6.177322,1104
6.178322,2688
6.179322,928
6.180321,11058
6.181325,10322
6.182324,704
6.183322,8450
6.184323,11874
6.185322,640
6.186322,2544
6.187322,2368
6.188321,1920
6.189324,3392
6.190322,1664
6.191322,15843
6.192338,3008
6.354384,8706
6.354859,8226
6.355119,9298
6.355365,9138
6.355603,8177
6.355865,6993
6.356097,4625
6.356336,1248
6.356571,1936
6.356825,5841
6.357058,10626
6.357323,14579
6.358320,7969
6.359322,7617
6.360322,11490
6.361320,7953
6.362324,1696
6.363320,5441
6.364322,10466
6.365320,7217
6.366322,2288
6.367320,50028
6.368321,29143
6.369322,1424
6.370322,1552
6.371322,7377
6.372322,29207
6.373322,6497
6.374322,3344
6.375322,22677
6.376323,912
6.377323,4785
6.378320,1200
6.379322,2768
6.380322,12130
6.381320,7249
6.382322,41050
6.383341,38889
6.384334,18612
6.385323,2192
6.386322,20965
6.387322,21509
6.388322,23125
6.389322,37961
6.390322,18100
6.391322,1936
6.392321,36776
6.393320,4993
6.394322,19492
6.395322,28566
6.396322,3792
6.397322,832
6.398321,1536
6.399321,19492
6.400323,4881
6.401324,1056
6.402322,8017
6.403324,992
6.404321,13123
6.405323,3616
6.406322,20228
6.407324,4689
6.408322,37769
6.409322,6417
6.410321,1552
6.411322,11858
6.412323,2560
6.413322,8177
6.414324,928
6.415322,7521
6.416320,54701
6.417323,11458
6.418323,26854
6.419323,40601
6.420322,17204
6.421323,10018
6.422324,2368
6.423323,12531
6.424323,20292
6.425321,2448
6.426322,1216
6.427320,1552
6.428325,14675
6.429323,21685
6.430320,3104
6.431322,1360
6.432322,30535
6.433320,10706
6.434324,12931
6.435321,33048
6.436322,10834
6.437320,16676
6.438323,15827
6.439322,18532
6.440322,14291
6.441322,9922
6.442321,960
6.443320,9826
6.444323,4945
6.445322,16772
6.446323,9426
6.447338,5025
6.448329,16980
6.449325,26358
6.450324,4833
6.451322,1888
6.452322,32215
6.453320,46491
6.454323,20324
6.455322,960
6.456323,24790
6.457322,27590
6.458320,3536
6.459323,1824
6.460324,26342
6.461323,24565
6.462323,8033
6.463322,46667
6.464325,6273
6.465322,928
6.466321,928
6.467321,7713
6.468321,1088
6.469323,24565
6.470321,32615
6.471320,9666
6.472320,5217
6.473324,38489
6.474323,20356
6.475321,3360
6.476323,10178
6.477323,25046
6.478321,14867
6.479321,12066
6.480323,1168
6.481323,36776
6.482323,25350
6.483321,2112
6.484322,5937
6.485320,2000
6.486325,35544
6.487322,14771
6.488322,8338
6.489322,32295
6.490322,26326
6.491322,19380
6.492323,5249
6.493323,1376
6.494323,6145
6.495322,19588
6.496322,20388
6.497323,2816
6.498320,1248
6.499324,9906
6.500322,11570
6.501320,17972
6.502322,19876
6.503324,4225
6.504322,1808
6.505324,12963
6.506322,17668
6.507325,10578
6.508322,10898
6.509324,4625
6.510322,4945
6.511341,3856
6.512328,12803
6.513324,1952
6.514321,10754
6.515323,12819
6.516322,25926
6.517322,17620
6.518321,1072
6.519324,1344
6.520324,3648
6.521323,28406
6.522324,5985
6.523322,3552
6.524322,8850
6.525321,2352
6.526322,18852
6.527321,39529
6.528323,1664
6.529322,12467
6.530322,21477
6.531323,1168
6.532322,3280
6.533321,17252
6.534322,3664
6.535322,2560
6.536324,1024
6.537321,7937
6.538324,7681
6.539321,19796
6.540322,2624
6.541322,38121
6.542321,29447
6.543322,43306
6.544322,3376
6.545322,3152
6.655771,20661
6.656423,41098
6.656838,35992
6.657226,23221
6.657624,21653
6.658070,13443
6.658462,16644
6.658844,23605
6.659228,18372
6.659634,18180
6.660025,16852
6.660422,12627
6.660811,1760
6.661323,11842
6.662323,1072
6.663322,9010
6.664321,9106
6.665323,8258
6.666321,2112
6.667322,12723
6.668321,4513
6.669322,6289
6.670323,912
6.671322,3632
6.672321,5153
6.673322,18852
6.674322,9682
6.675323,1280
6.676324,1040
6.677321,4785
6.678322,8546
6.679320,7201
6.680322,13763
6.681322,31783
6.682322,29959
6.683322,50524
6.684322,8354
6.685323,4064
6.686322,11826
6.687321,13507
6.688322,11586
6.689321,5569
6.690320,24485
6.691324,16436
6.692321,12723
6.693323,3392
6.694324,7425
6.695321,4817
6.696323,3088
6.697323,47627
6.698321,45259
6.699320,8978
6.700322,14371
6.701322,1808
6.702322,944
6.703417,29847
6.704333,2128
6.705324,3920
6.706322,816
6.707322,1744
6.708320,3408
6.709322,5953
6.710322,18900
6.711322,5249
6.712322,8770
6.713320,1648
6.714323,7217
6.715322,58718
6.716324,29127
6.717320,13235
6.718321,2256
6.719324,7889
6.720323,25446
6.721322,42906
6.722322,29447
6.723321,19044
6.724322,14147
6.725323,5841
6.726323,6577
6.727321,31335
6.728324,2592
6.729318,39321
6.730325,28310
6.731322,6081
6.732322,27590
6.733322,7905
6.734321,3984
6.735320,31767
6.736322,17748
6.737322,8177
6.738322,3760
6.739323,9426
6.740321,28262
6.741324,17204
6.742321,23909
6.743322,12194
6.744322,21429
6.745321,3824
6.746322,32840
6.747323,32359
6.748322,22437
6.749320,13843
6.750322,24902
6.751321,2432
6.752322,5313
6.753320,11218
6.754323,4625
6.755320,8049
6.756322,17940
6.757322,20933
6.758324,2592
6.759322,10658
6.760322,9682
6.761320,27142
6.762320,49051
6.763323,18260
6.764321,14883
6.765323,7921
6.766320,32087
6.767322,4817
6.768337,35272
6.769324,19364
6.770321,20372
6.771324,13859
6.772320,10690
6.773323,32279
6.774322,7457
6.775321,10898
6.776322,5921
6.777322,912
6.778322,6081
6.779322,1456
6.780322,44218
6.781322,27702
6.782322,4321
6.783321,10498
6.784323,29127
6.785325,25958
6.786319,35928
6.787325,13107
6.788322,43162
6.789324,65535
6.790324,29623
6.791323,1104
6.792321,11442
6.793321,8097
6.794322,976
6.795322,12851
6.796323,7585
6.797322,24565
6.798320,32391
6.799321,1408
6.800323,11650
6.801324,3152
6.802322,8290
6.803322,15427
6.804323,31143
6.805323,9714
6.806321,1184
6.807324,1024
6.808322,1696
6.809322,896
6.810324,1712
6.811322,2752
6.812322,8065
6.813323,12371
6.814322,6961
6.815324,6913
6.816324,4369
6.817321,20805
6.818322,3616
6.819322,21461
6.820323,29127
6.821320,1440
6.822322,12627
6.823322,11554
6.824323,9714
6.825323,2688
6.826322,20533
6.827323,23429
6.828323,55741
6.829322,29431
6.830322,27222
6.831323,42826
6.832337,22581
6.833328,39465
6.834322,22181
6.835323,6017
6.836323,1408
6.837323,26550
6.838322,4689
6.839322,2288
6.840324,48667
6.841323,35016
6.842322,12563
6.843322,14435
6.844320,11010
6.845322,27974
6.846320,24389
6.847320,17988
7.005012,27398
7.005829,21221
7.006418,14243
7.006968,6433
7.007515,4273
7.008117,16708
7.008659,23093
7.009196,4000
7.009736,26038
7.010297,43674
7.010837,19540
7.011382,3744
7.011925,1984
7.012470,11090
7.013017,9026
7.013562,7681
7.014104,11522
7.014676,21397
7.015324,23141
7.016322,26022
7.017324,20420
7.018322,14083
7.019322,13027
7.020323,2400
7.021323,14531
7.022323,22021
7.023321,30903
7.024345,1376
7.025331,1472
7.026323,12082
7.027322,2992
7.028322,1920
7.029322,17620
7.030322,16131
7.031322,31831
7.032322,4881
7.033322,22997
7.034322,26646
7.035323,6257
7.036321,16932
7.037323,1408
7.038322,5857
7.039323,1776
7.040322,9538
7.041321,9282
7.042322,24902
7.043321,5841
7.044322,18212
7.045321,19268
7.046322,12451
7.047324,4689
7.048321,1104
7.049324,23749
7.050320,13907
7.051324,19620
7.052322,32407
7.053323,6689
7.054322,21061
7.055322,42378
7.056322,10034
7.057323,18276
7.058323,9762
7.059321,16067
7.060322,1872
7.061322,50492
7.062321,25030
7.063322,21077
7.064323,15939
7.065320,35592
7.066323,15395
7.067320,20949
7.068321,65135
7.069324,27126
7.070323,16227
7.071323,2848
7.072324,5553
7.073321,37673
7.074322,23301
7.075322,15539
7.076322,4961
7.077323,1760
7.078322,28775
7.079320,32295
7.080325,1536
7.081322,26758
7.082321,28903
7.083323,8754
7.084324,24501
7.085323,1584
7.086321,31239
7.087322,43354
7.088339,10562
7.089326,28086
7.090323,8866
7.091319,14275
7.092324,10706
7.093323,11378
7.094322,4449
7.095323,5681
7.096322,36889
7.097322,8866
7.098325,1680
7.099322,16964
7.100320,6033
7.101323,4369
7.102322,3584
7.103320,11378
7.104322,3664
7.105324,3504
7.106323,1488
7.107324,3472
7.108322,27590
7.109324,39049
7.110322,3856
7.111322,12499
7.112322,20789
7.113323,6561
7.114321,1504
7.115322,10898
7.116322,31703
7.117323,4769
7.118321,15011
7.119322,4064
7.120324,8081
7.121324,6625
7.122323,52620
7.123322,18564
7.124323,1824
7.125323,13283
7.126324,7009
7.127322,4449
7.128322,41258
7.129322,18532
7.130322,26150
7.131322,22709
7.132321,10610
7.133322,61759
7.134322,2112
7.135322,37913
7.136322,4545
7.137321,10546
7.138324,4849
7.139322,34952
7.140320,4545
7.141323,2704
7.142323,6577
7.143322,4881
7.144322,11746
7.145323,17428
7.146324,44010
7.147322,31767
7.148322,7297
7.149321,2128
7.150321,4785
7.151322,1232
7.152335,10962
7.153326,30935
7.154323,15827
7.155325,29447
7.156325,37273
7.157322,48219
7.158323,7521
7.159320,20020
7.160321,24117
7.161321,35032
7.162321,1808
7.163322,43754
7.164322,52828
7.165322,53277
7.166323,4785
7.167322,1424
7.168322,27414
7.169323,1952
7.170324,18612
7.171322,1856
7.172321,5185
7.173324,39305
7.174323,13891
7.175323,1984
7.176322,15827
7.177322,31191
7.178322,45179
7.179321,25638
7.180323,3280
7.181322,14003
7.182323,3088
7.183322,1168
7.184321,4289
7.185323,6257
7.186321,2080
7.187322,16259
7.188322,8354
7.189323,23941
7.190322,24357
7.191322,13875
7.192324,39977
7.193323,20789
7.194322,2608
7.195325,19012
7.196322,16051
7.354200,8706
7.355176,3536
7.355911,7697
7.356625,13395
7.357326,2480
7.358096,1232
7.358799,18388
7.359498,16724
7.360195,5425
7.360916,6657
7.361621,1728
7.362325,3200
7.363023,7729
7.363725,26390
7.364436,9218
7.365140,1968
7.365850,29463
7.366578,2336
7.367282,1856
7.367994,1088
7.368705,11890
7.369414,9938
7.370123,16708
7.370837,29879
7.371549,41130
7.372260,20068
7.372976,9890
7.373685,12419
7.374400,4000
7.375322,7441
7.376321,22021
7.377322,23557
7.378321,19124
7.379322,2640
7.380322,15539
7.381323,16772
7.382322,1664
7.383321,7009
7.384323,18772
7.385320,21029
7.386322,65535
7.387323,65535
7.388321,12403
7.389322,19316
7.390321,32167
7.391320,1312
7.392322,2592
7.393322,2048
7.394319,1856
7.395323,11586
7.396324,2496
7.397322,9138
7.398323,24101
7.399322,54701
7.400323,37001
7.401321,4897
7.402321,49708
7.403322,65535
7.404322,33752
7.405324,2784
7.406321,8626
7.407344,4801
7.408326,13331
7.409323,14003
7.410323,2000
7.411325,19588
7.412324,47131
7.413323,41050
7.414323,19076
7.415323,32952
7.416323,41578
7.417324,41226
7.418323,11586
7.419323,18948
7.420320,21893
7.421324,25478
7.422322,7809
7.423322,16211
7.424323,2848
7.425323,27574
7.426323,24565
7.427321,31767
7.428321,4000
7.429320,7953
7.430321,21253
7.431323,21653
7.432323,1504
7.433324,9442
7.434321,16404
7.435322,8354
7.436322,2880
7.437321,10722
7.438323,4625
7.439322,19124
7.440322,1952
7.441324,5345
7.442322,1472
7.443322,3328
7.444324,8450
7.445319,3072
7.446323,12803
7.447323,22821
7.448320,25894
7.449322,6289
7.450322,17988
7.451322,40585
7.452322,2112
7.453323,6353
7.454324,5537
7.455323,11138
7.456324,44490
7.457321,20517
7.458323,10210
7.459324,65535
7.460323,1568
7.461322,18900
7.462321,3344
7.463324,11938
7.464319,15427
7.465323,11186
7.466324,29895
7.467323,5377
7.468324,9474
7.469323,2176
7.470323,9746
7.471339,14147
7.472328,13011
7.473326,21605
7.474323,14083
7.475322,4289
7.476324,15859
7.477322,11266
7.478322,21029
7.479323,14963
7.480322,3264
7.481321,10178
7.482321,37033
7.483322,22101
7.484324,5937
7.485320,5905
7.486323,15587
7.487322,19956
7.488322,14259
7.489322,59550
7.490322,6753
7.491321,9058
7.492324,1488
7.493324,4369
7.494322,17284
7.495323,10770
7.496320,12755
7.497323,28711
7.498322,2080
7.499323,1360
7.500322,7057
7.501325,13923
7.502322,9186
7.503322,21221
7.504323,46939
7.505323,15203
7.506322,1760
7.507324,39385
7.508321,25766
7.509324,2752
7.510321,40953
7.511323,26630
7.512322,25862
7.513322,2208
7.514322,5601
7.515324,22277
7.516322,35672
7.517322,7345
7.518322,6817
7.519320,20693
7.520323,16852
7.530931,1872
7.531163,8610
7.531377,16724
7.531586,17268
7.531797,10242
7.532006,1904
7.532217,10178
7.532433,14147
7.532644,7585
7.532858,2976
7.533322,1568
7.534322,5985
7.535335,19556
7.536329,2144
7.537324,4145
7.538322,25110
7.539324,5169
7.540320,30855
7.541322,8194
7.542322,22725
7.543324,31415
7.544323,24373
7.545320,6513
7.546323,24565
7.547324,2672
7.696968,3632
7.697520,15139
7.697828,7425
7.698107,5409
7.698391,6289
7.698740,8177
7.699020,10626
7.699303,5025
7.699587,3168
7.699884,10370
7.700164,12034
7.700447,3840
7.701322,12387
7.702320,13747
7.703322,30119
7.704322,21957
7.705321,34872
7.706322,58494
7.707321,62591
7.708321,33944
7.709322,9666
7.710322,65535
7.711322,65535
7.712322,65535
7.713322,14403
7.714324,4385
7.715322,15523
7.716322,928
7.717322,1408
7.718323,17572
7.719323,39641
7.720321,17060
7.721322,28406
7.722324,4417
7.723322,6049
7.724321,2256
7.725325,4817
7.726323,17812
7.727341,20613
7.728326,1072
7.729324,8674
7.730321,31911
7.731322,2944
7.732320,17172
7.733321,4016
7.734324,38937
7.735323,20533
7.736322,14835
7.737322,18996
7.738322,12066
7.739324,21605
7.740322,65535
7.741321,27094
7.742320,10626
7.743321,9218
7.744322,54125
7.745322,37193
7.746325,9442
7.747322,10658
7.748322,8370
7.749324,1504
7.750323,10146
7.751324,7425
7.752320,1216
7.753323,18916
7.754324,6241
7.755322,24469
7.756321,1632
7.757323,8177
7.758323,10242
7.759323,1728
7.760321,24069
7.761322,11586
7.762322,17876
7.763323,19876
7.764322,6369
7.765323,1280
7.766321,18836
7.767322,1152
7.768322,6849
7.769320,9442
7.770323,14643
7.771324,2112
7.772322,3136
7.773322,20709
7.774322,26934
7.775323,6097
7.776321,18100
7.777323,15203
7.778322,8898
7.779323,42090
7.780322,45002
7.781323,42570
7.782322,6817
7.783322,24565
7.784323,9474
7.785322,848
7.786322,1424
7.787323,14611
7.788322,5297
7.789322,11746
7.790321,8930
7.791336,6369
7.792330,9874
7.793325,1616
7.794324,8914
7.795323,13587
7.796322,6897
7.797322,30567
7.798322,10722
7.799322,16980
7.800321,5537
7.801321,1664
7.802322,50252
7.803321,7137
7.804322,25974
7.805324,4801
7.806322,9954
7.807324,2528
7.808324,1280
7.809322,14339
7.810324,1072
7.811320,5265
7.812321,5601
7.813323,9314
7.814321,1344
7.815321,1696
7.816322,12707
7.817322,14179
7.818324,2688
7.819322,8834
7.820323,7425
7.821320,14787
7.822322,23461
7.823324,12515
7.824322,1424
7.825320,10674
7.826322,14147
7.827321,8674
7.828322,9602
7.829321,17108
7.830323,2352
7.831324,2592
7.832322,2288
7.833323,4080
7.834322,15331
7.835322,22069
7.836323,23365
7.837322,11922
7.838322,5089
7.839322,11170
7.840320,1168
7.841322,11282
7.842322,30247
7.843322,32711
7.844322,24838
7.845322,17668
7.846322,10418
7.847321,9698
7.848323,34488
7.849322,14083
7.850322,14179
7.851323,3792
7.852323,4401
7.853320,10706
7.854322,4225
7.855336,2304
7.856327,1664
7.857325,35480
7.858321,35048
7.859324,3632
7.860324,47339
7.861321,32503
7.862322,18324
7.863322,6417
7.864319,20917
7.865320,16708
7.866323,11730
7.867322,19716
7.868322,38345
7.869323,10434
7.870324,9490
7.871324,1264
7.872321,26534
7.873323,28502
7.874323,34760
7.875322,38585
7.876323,1952
7.877320,12419
7.878321,3792
7.879324,5553
7.880322,33688
7.881320,1968
7.882322,21093
7.883322,27606
7.884322,928
7.885322,19748
7.886323,14435
7.887323,9890
7.888322,5153
7.995317,14259
7.995998,8081
7.996461,16740
7.996895,17348
7.997331,26518
7.997825,15635
7.998261,1664
7.998708,20244
7.999142,33960
7.999600,25686
8.000033,6289
8.000470,7441
8.000904,18708
8.001342,21125
8.001777,16996
8.002321,11506
8.003323,31719
8.004322,28679
8.005320,1584
8.006322,10962
8.007325,2144
8.008322,1040
8.009320,27926
8.010324,20597
8.011321,3248
8.012322,16003
8.013324,6753
8.014323,1568
8.015324,5153
8.016325,12226
8.017321,8274
8.018322,4048
8.019324,19796
8.020322,13891
8.021323,28630
8.022322,18292
8.023322,28102
8.024322,32231
8.025324,4513
8.026322,2080
8.027324,35032
8.028323,26070
8.029323,7825
8.030322,33096
8.031321,1936
8.032322,8786
8.033325,4785
8.034322,12499
8.035323,1584
8.036322,10690
8.037322,9650
8.038322,18708
8.039320,31783
8.040320,10258
8.041321,2288
8.042322,4000
8.043323,4721
8.044321,1296
8.045322,992
8.046322,3280
8.047321,10162
8.048337,14931
8.049326,10578
8.050322,20116
8.051321,27542
8.052323,8177
8.053325,20324
8.054322,42970
8.055322,29351
8.056321,45435
8.057321,12515
8.058321,8001
8.059322,60574
8.060322,43546
8.061323,6225
8.062321,23941
8.063322,23813
8.064323,23941
8.065322,6161
8.066323,1088
8.067322,9362
8.068322,1072
8.069324,12947
8.070322,9746
8.071322,6241
8.072323,1824
8.073322,6529
8.074321,1056
8.075322,3888
8.076321,7793
8.077324,14659
8.078321,2992
8.079322,27174
8.080322,19684
8.081322,1104
8.082322,52268
8.083322,31911
8.084325,11186
8.085320,944
8.086323,4097
8.087323,8530
8.088323,2832
8.089323,2192
8.090322,16516
8.091322,10418
8.092322,7489
8.093322,25334
8.094321,7937
8.095321,1312
8.096324,7217
8.097323,4145
8.098321,29063
8.099322,2976
8.100322,17284
8.101320,1808
8.102322,24197
8.103322,6017
8.104323,24710
8.105323,11058
8.106323,23557
8.107322,1280
8.108324,10834
8.109322,7825
8.110321,38729
8.111321,27526
8.112340,37385
8.113322,21861
8.114324,1152
8.115324,1632
8.116323,1936
8.117320,29735
8.118323,6545
8.119321,12819
8.120321,10498
8.121321,960
8.122324,12307
8.123322,2320
8.124323,1600
8.125322,3728
8.126324,3232
8.127322,2192
8.128324,13523
8.129320,27542
8.130322,26486
8.131322,4833
8.132321,25366
8.133323,40953
8.134323,52300
8.135322,52636
8.136322,45915
8.137322,4016
8.138324,9890
8.139322,9538
8.140322,15075
8.141321,5185
8.142323,2064
8.143322,816
8.144323,13811
8.145322,3216
8.146322,24181
8.147321,1600
8.148322,1408
8.149323,18932
8.150324,6337
8.151323,12419
8.152322,3520
8.153324,768
8.154323,4321
8.155324,12819
8.156322,1712
8.157322,4016
8.158322,32743
8.159322,45771
8.160324,21125
8.161322,16211
8.162323,4113
8.163323,16355
8.164320,28871
8.165323,34120
8.166322,24549
8.167321,19540
8.168322,3360
8.169323,11266
8.170324,7185
8.171322,28903
8.172322,30599
8.173322,26726
8.174324,2016
8.175322,25734
8.176340,26134
8.177329,11938
8.178324,40361
8.179324,54845
8.180322,17332
8.181322,23317
8.182322,10402
8.183321,1552
8.184322,18388
8.185322,3040
8.186323,1152
8.351121,9858
8.351971,25686
8.352584,14595
8.353168,8210
8.353756,16916
8.354413,20709
8.354998,23397
8.355585,25574
8.356168,27894
8.356777,4673
8.357367,24245
8.357955,27366
8.358543,24854
8.359126,23813
8.359719,14627
8.360311,2688
8.360904,1168
8.361530,2320
8.362118,12194
8.362715,3760
8.363324,15459
8.364321,14211
8.365321,26422
8.366322,6209
8.367367,1952
8.368329,9282
8.369320,10434
8.370322,3408
8.371320,4929
8.372322,26278
8.373323,12691
8.374323,3152
8.375322,24565
8.376322,2608
8.377321,5441
8.378322,12034
8.379322,10994
8.380320,5889
8.381323,28871
8.382322,19412
8.383324,7201
8.384323,7441
8.385322,14435
8.386323,44954
8.387321,19412
8.388322,11970
8.389322,34152
8.390322,23461
8.391324,15427
8.392322,5761
8.393323,13507
8.394324,12819
8.395321,944
8.396322,1696
8.397321,10210
8.398324,1360
8.399322,19604
8.400322,1552
8.401321,2592
8.402322,29143
8.403323,26982
8.404322,10194
8.405322,1104
8.406323,8514
8.407325,31687
8.408322,1952
8.409323,4016
8.410324,27542
8.411321,28102
8.412323,3648
8.413324,33752
8.414321,28582
8.415323,7489
8.416322,9890
8.417323,11314
8.418320,55389
8.419324,2320
8.420323,21285
8.421322,17364
8.422322,13379
8.423323,15171
8.424322,3680
8.425323,3248
8.426321,1200
8.427322,14979
8.428320,4833
8.429322,12098
8.430323,20501
8.431402,32087
8.432329,5057
8.433322,46939
8.434323,65535
8.435323,27942
8.436321,7425
8.437323,49868
8.438324,33880
8.439322,24133
8.440321,10834
8.441323,3840
8.442321,1872
8.443322,8210
8.444321,38681
8.445322,6817
8.446323,6721
8.447322,4337
8.448321,63391
8.449323,14899
8.450323,3648
8.451322,24421
8.452323,30215
8.453322,7889
8.454322,11698
8.455322,1152
8.456324,16163
8.457320,8626
8.458322,816
8.459323,1264
8.460322,2160
8.461321,22229
8.462323,16772
8.463321,7697
8.464322,2048
8.465323,12995
8.466324,21701
8.467321,7265
8.468322,31767
8.469322,31511
8.470322,4273
8.471324,3376
8.472322,5169
8.473322,11618
8.474322,11442
8.475324,7393
8.476321,40681
8.477321,10258
8.478322,14803
8.479322,1056
8.480321,4785
8.481322,17460
8.482324,65535
8.483322,17108
8.484324,7665
8.485323,14403
8.486321,20164
8.487320,23701
8.488324,21445
8.489322,9746
8.490323,4273
8.491322,12355
8.492321,12162
8.493324,19140
8.494322,11426
8.495321,14995
8.496343,13363
8.497329,10450
8.498321,23381
8.499322,42186
8.500322,24565
8.501322,13187
8.502322,11170
8.503324,3296
8.504322,1760
8.505323,10930
8.506322,848
8.507323,5825
8.508319,2832
8.509322,12691
8.510323,10242
8.511321,4689
8.512322,752
8.513322,1040
8.514321,752
8.515324,19236
8.516321,3952
8.517323,10834
8.518322,704
8.519322,1552
8.520322,11682
8.521322,17684
8.522321,23573
8.523320,12034
8.524322,3664
8.525322,4465
8.526322,16211
8.527322,2880
8.528320,23109
8.529324,44122
8.530320,6049
8.531321,21333
8.532321,5905
8.533322,8354
8.534322,1296
8.535322,2944
8.536322,17876
8.537320,12819
8.538323,7729
8.539323,17812
8.540320,35944
8.541323,15555
8.542322,32407
8.695709,2832
8.696722,13651
8.697502,28438
8.698254,8530
8.699004,7233
8.699825,22533
8.700574,5329
8.701321,1856
8.702075,4529
8.702840,13395
8.703589,2992
8.704338,18516
8.705084,15939
8.705836,6097
8.706592,2896
8.707344,2096
8.708097,15907
8.708873,18980
8.709628,1392
8.710384,3024
8.711142,1664
8.711898,24565
8.712659,20372
8.713419,24966
8.714181,32279
8.714942,39449
8.715704,22437
8.716467,1504
8.717222,13795
8.717983,15395
8.718748,10722
8.719511,4561
8.720322,10930
8.721324,2592
8.722322,6081
8.723324,1696
8.724324,14547
8.725324,9618
8.726321,14467
8.727323,5265
8.728324,33240
8.729322,4833
8.730322,39129
8.731324,16339
8.732321,65263
8.733323,8738
8.734320,1504
8.735324,8978
8.736322,55725
8.737322,46827
8.738322,5953
8.739324,22933
8.740322,8081
8.741324,3888
8.742322,11154
8.743321,14387
8.744323,4689
8.745322,12162
8.746323,14755
8.747323,3504
8.748323,16708
8.749323,8626
8.750323,1248
8.751321,26742
8.752343,9890
8.762604,8898
8.762835,11154
8.763046,16660
8.763257,25958
8.763473,33848
8.763684,35176
8.763899,32039
8.764109,25910
8.764326,20805
8.764544,16307
8.765322,19588
8.766321,60414
8.767322,3360
8.768323,12499
8.769323,8081
8.770323,6177
8.771321,1504
8.772322,5121
8.773322,20020
8.774322,4641
8.775321,27430
8.776323,3360
8.777322,23909
8.778323,11650
8.779322,3488
8.780323,9762
8.781322,5297
8.782320,9874
8.783322,1984
8.784321,3136
8.785324,2768
8.786322,59006
8.787324,25398
8.788320,12867
8.789323,16099
8.790324,19348
8.791322,3472
8.792322,22789
8.793321,1040
8.794323,3712
8.795324,12291
8.796322,47291
8.797323,64143
8.798324,20020
8.799322,2208
8.800322,14643
8.801322,1280
8.802322,17092
8.803322,2704
8.804322,20132
8.805320,14595
8.806322,53533
8.807322,6833
8.808322,4048
8.809323,1184
8.810320,44154
8.811323,48811
8.812324,3152
8.813322,1968
8.814323,10274
8.815322,11698
8.816344,832
8.817328,6321
8.818322,1424
8.819322,2240
8.820322,22725
8.821322,18708
8.822322,1872
8.823322,1600
8.824321,2736
8.825324,1488
8.826320,2048
8.827323,27590
8.828323,38697
8.829322,5921
8.830323,7969
8.831321,960
8.832321,1216
8.833320,864
8.834325,31255
8.835323,8482
8.836323,3200
8.837322,5089
8.838322,8706
8.839323,2064
8.840323,22117
8.841322,8866
8.842323,976
8.843322,12563
8.844324,3008
8.845323,29367
8.846323,7153
8.847323,6289
8.848321,12691
8.849321,1168
8.850322,5937
8.851321,19380
8.852322,17124
8.853320,13907
8.854323,1456
8.855324,14115
8.856324,1184
8.857321,8706
8.858323,21973
8.859322,10034
8.860321,15139
8.861323,8194
8.862321,8866
8.863322,6593
8.864323,2960
8.865322,13379
8.866321,7201
8.867322,10994
8.868322,1696
8.869322,17028
8.870321,1744
8.871324,2384
8.872321,1552
8.873323,13283
8.874324,960
8.875323,8017
8.876324,6817
8.877322,9362
8.878324,11010
8.879322,13011
8.880341,39193
8.881331,19620
8.882323,16211
8.883324,57902
8.884320,50012
8.885320,36104
8.886322,4945
8.887321,8402
8.888322,5601
8.889322,13699
8.996516,10050
8.997103,4657
8.997481,4897
8.997823,1232
8.998158,1104
8.998568,848
8.998905,912
8.999244,1552
8.999588,4593
8.999947,13507
9.000290,21429
9.000634,19620
9.001323,32391
9.002325,13875
9.003321,19332
9.004323,45723
9.005322,5041
9.006322,34952
9.007323,28855
9.008355,928
9.009333,800
9.010325,16147
9.011322,12451
9.012321,2432
9.013322,18388
9.014324,10546
9.015322,1232
9.016324,2848
9.017323,12467
9.018322,13795
9.019322,1632
9.020322,16420
9.021322,15251
9.022322,6673
9.023324,6049
9.024320,4897
9.025323,4241
9.026322,3552
9.027322,864
9.028323,1552
9.029322,9170
9.030321,19076
9.031323,3744
9.032322,16275
9.033322,24565
9.034322,26662
9.035323,29079
9.036321,22245
9.037322,38745
9.038321,35528
9.039323,3488
9.040322,7089
9.041322,15059
9.042322,6401
9.043324,13843
9.044322,2960
9.045322,2272
9.046322,8770
9.047325,15715
9.048322,11490
9.049324,5073
9.050323,7921
9.051320,6641
9.052320,1424
9.053322,4289
9.054324,8386
9.055323,6417
9.056323,12867
9.057321,9890
9.058322,1968
9.059324,19460
9.060322,21461
9.061322,5297
9.062324,25782
9.063322,7217
9.064321,1024
9.065324,1424
9.066322,9266
9.067323,2896
9.068322,5025
9.069321,15123
9.070323,21909
9.071342,64207
9.072327,3248
9.073323,1552
9.074321,1616
9.075322,23445
9.076323,33448
9.077325,20404
9.078322,1168
9.079321,4673
9.080321,7905
9.081318,5601
9.082322,6449
9.083321,5569
9.084324,7681
9.085319,4369
9.086322,960
9.087323,7041
9.088324,2480
9.089322,5649
9.090320,1264
9.091322,26326
9.092321,33336
9.093322,13139
9.094322,10018
9.095323,12307
9.096323,31127
9.097324,41658
9.098322,16099
9.099323,3808
9.100324,8113
9.101320,21957
9.102322,25094
9.103321,17876
9.104321,1712
9.105324,1184
9.106321,3488
9.107322,4705
9.108324,27270
9.109322,35176
9.110321,15491
9.111323,1744
9.112324,25366
9.113323,14531
9.114324,47323
9.115321,23525
9.116323,4064
9.117321,7457
9.118323,8754
9.119324,10978
9.120322,8802
9.121321,18996
9.122321,40329
9.123321,51036
9.124320,36152
9.125322,25958
9.126322,5169
9.127322,1088
9.128321,15331
9.129323,12803
9.130318,15795
9.131321,13075
9.132324,7313
9.133324,2176
9.134322,2304
9.135340,30599
9.136331,45387
9.137326,2912
9.138324,65535
9.139323,41818
9.140322,21589
9.141323,10066
9.142322,28086
9.143322,46091
9.144322,19812
9.145321,9858
9.146322,13731
9.147323,16195
9.148322,15955
9.149320,4257
9.150321,17780
9.151324,9698
9.152323,8322
9.153322,13203
9.154321,17332
9.155324,7697
9.156321,1344
9.157322,3040
9.158322,3168
9.159321,6017
9.160323,8770
9.161320,2272
9.162323,31527
9.163322,22309
9.164322,7201
9.165322,9474
9.166323,3040
9.167322,18644
9.168322,8978
9.169320,34024
9.170323,5553
9.171321,1936
9.172320,24453
9.173320,11730
9.174321,35320
9.175324,22421
9.176322,13203
9.177322,4545
9.178321,5473
9.179322,1584
9.180322,3280
9.181321,1264
9.182323,12739
9.183324,2992
9.184322,3584
9.185322,35048
9.186322,14899
9.187322,3200
9.188321,1840
9.345464,3520
9.346212,5425
9.346751,19428
9.347251,25446
9.347751,21893
9.348320,6881
9.348812,8177
9.349307,10690
9.349796,13523
9.350311,5713
9.350809,6145
9.351306,18996
9.351802,25526
9.352302,31127
9.352800,30999
9.353300,22133
9.353798,1408
9.354326,4881
9.355323,1616
9.356324,1632
9.357324,2144
9.358320,8177
9.359321,16836
9.360321,5345
9.361322,2400
9.362323,3808
9.363322,10210
9.364323,5409
9.365322,1216
9.366322,7201
9.367321,13603
9.368321,2400
9.369321,12611
9.370322,18692
9.371322,1104
9.372322,12563
9.373322,12883
9.374324,8402
9.375322,34056
9.376322,10466
9.377324,1328
9.378321,2784
9.379323,28727
9.380322,1712
9.381322,28214
9.382322,7569
9.383322,12851
9.384322,10322
9.385324,1408
9.386323,1344
9.387324,15971
9.388323,1504
9.389323,7745
9.390322,5057
9.391347,1888
9.392331,2992
9.393323,10914
9.394322,2688
9.395323,3808
9.396322,10498
9.397324,5697
9.398323,21205
9.399322,4785
9.400323,26294
9.401321,19140
9.402323,6721
9.403323,1888
9.404322,6529
9.405321,9874
9.406322,1584
9.407322,14243
9.408322,5649
9.409324,6257
9.410324,9058
9.411320,5217
9.412324,2576
9.413324,16948
9.414322,4209
9.415321,3856
9.416322,7745
9.417323,4032
9.418321,9762
9.419322,28614
9.420323,10178
9.421322,20677
9.422324,1296
9.423321,1408
9.424324,4769
9.425321,42778
9.426323,4881
9.427323,41034
9.428321,32599
9.429323,9570
9.430323,13555
9.431322,6753
9.432322,16708
9.433324,15459
9.434322,1952
9.435321,9794
9.436321,10018
9.437322,976
9.438321,45723
9.439322,46859
9.440321,25062
9.441321,6049
9.442323,16740
9.443321,45739
9.444322,29863
9.445324,4321
9.446322,1344
9.447322,1984
9.448323,3136
9.449320,2864
9.450320,7297
9.451324,10754
9.452322,7137
9.453322,5905
9.454322,5841
9.455335,8354
9.456327,4737
9.457325,14611
9.458322,2096
9.459320,35128
9.460322,9650
9.461323,3264
9.462322,20324
9.463322,12595
9.464322,28198
9.465323,34920
9.466322,22741
9.467323,1232
9.468322,11410
9.469323,25174
9.470322,19012
9.471323,14163
9.472322,65535
9.473321,46507
9.474322,17204
9.475322,23237
9.476322,65535
9.477322,65535
9.478323,24053
9.479324,5697
9.480322,2000
9.481324,2256
9.482322,1968
9.483322,1792
9.484321,9058
9.485320,17956
9.486324,26278
9.487322,27270
9.488323,40009
9.489323,33512
9.490320,23509
9.491321,11186
9.492324,2864
9.493321,1760
9.494324,3232
9.495321,3728
9.496323,1232
9.497322,3152
9.498323,3616
9.499321,912
9.500323,1184
9.501321,928
9.502322,3488
9.503322,7585
9.504320,6305
9.505324,4961
9.506319,21285
9.507323,22997
9.508323,7745
9.509324,18372
9.510323,10962
9.511325,20036
9.512321,7761
9.513322,11202
9.514322,18932
9.515322,2608
9.516322,11522
9.517324,9506
9.518323,32071
9.519338,5889
9.520326,38185
9.521322,49452
9.522323,13379
9.523321,7761
9.524322,1296
9.525320,1504
9.526323,12899
9.527320,2736
9.528322,10002
9.529323,31495
9.530322,12979
9.531321,4193
9.532322,35912
9.533322,20036
9.534321,10786
9.535322,25734
9.536321,26838
9.689702,6113
9.690617,2352
9.691299,6289
9.691956,5841
9.692610,5521
9.693323,20661
9.693973,8177
9.694622,1184
9.695267,992
9.695934,928
9.696589,9554
9.697236,9090
9.697888,7457
9.698540,17732
9.699188,3632
9.699841,3408
9.700493,7041
9.701167,29223
9.701822,15443
9.702473,18964
9.703128,11906
9.703786,38553
9.704447,38745
9.705321,31575
9.706323,6177
9.707322,31767
9.708322,6193
9.709322,31575
9.710324,19284
9.711369,25878
9.712326,49516
9.713322,1520
9.714321,37305
9.715322,17588
9.716323,1616
9.717322,2112
9.718324,8145
9.719323,10210
9.720323,16243
9.721322,3712
9.722322,22053
9.723321,30279
9.724323,16836
9.725322,3520
9.726323,45083
9.727324,1968
9.728323,1536
9.729321,8001
9.730323,3072
9.731321,14627
9.732322,20180
9.733321,20549
9.734321,1504
9.735323,28150
9.736322,59214
9.737322,48267
9.738321,3216
9.739324,46411
9.740321,61967
9.741323,5073
9.742322,6241
9.743320,25494
9.744322,49147
9.745321,31623
9.746321,1120
9.747322,6497
9.748321,26662
9.749323,22917
9.750321,9922
9.751320,1232
9.752324,18868
9.753324,9954
9.754321,3840
9.755323,22069
9.756321,13491
9.757322,2064
9.758321,1360
9.759324,20276
9.760321,8226
9.761322,14275
9.762321,24998
9.763323,44010
9.764323,65535
9.765324,65535
9.766322,13283
9.767322,35384
9.768323,9394
9.769324,5281
9.770320,12018
9.771324,896
9.772321,26214
9.773322,35368
9.774322,10514
9.775385,2192
9.776331,7633
9.777327,39673
9.778325,21253
9.779323,65535
9.780324,44490
9.781321,4801
9.782322,2624
9.783321,17988
9.784322,7457
9.785322,3072
9.786323,14003
9.787322,2288
9.788324,12146
9.789320,12355
9.790323,960
9.791322,5841
9.792322,8978
9.793322,10274
9.794322,10322
9.795322,16019
9.796325,8466
9.797323,15507
9.798323,27158
9.799321,29239
9.800322,18132
9.801324,15635
9.802320,2240
9.803322,1152
9.804322,3840
9.805319,14115
9.806322,6337
9.807322,10882
9.808322,1264
9.809321,27014
9.810323,2320
9.811322,19636
9.812322,30519
9.813322,16468
9.814322,9858
9.815323,17156
9.816322,9026
9.817322,7553
9.818321,5297
9.819324,24646
9.820322,39097
9.821323,25414
9.822323,2432
9.823321,12723
9.824323,8450
9.825320,23637
9.826323,40857
9.827320,12691
9.828321,5025
9.829323,11618
9.830321,7377
9.831321,27798
9.832321,6273
9.833322,5825
9.834322,6385
9.835322,2640
9.836324,3072
9.837321,5313
9.838322,1744
9.839361,8242
9.840334,5665
9.841328,2864
9.842322,12739
9.843322,8370
9.844323,2992
9.845322,5233
9.846322,18452
9.847322,1456
9.848323,6881
9.849322,10594
9.850321,10466
9.851323,11490
9.852322,8033
9.853322,19796
9.854324,10114
9.855322,3216
9.856324,1184
9.857321,9906
9.858322,9234
9.859320,22661
9.860321,1952
9.861322,34168
9.862321,29015
9.863321,4625
9.864323,17812
9.865321,11474
9.866321,11842
9.867321,1984
9.868322,9346
9.869322,1488
9.870321,1360
9.871319,11698
9.872322,16580
9.873322,3520
9.874321,31399
9.875321,21701
9.876322,34888
9.877323,16131
9.878320,1280
9.879322,5217
9.880322,3824
9.881322,17796
10.085801,10402
10.087892,4193
10.088861,6865
10.089705,1888
10.090523,17124
10.091403,43050
10.092208,20517
10.093021,1472
10.093833,15059
10.094660,4177
10.095480,11682
10.096454,1680
10.097279,2688
10.098101,21205
10.098918,18452
10.099738,11586
10.107081,42266
10.107326,40873
10.107548,36648
10.107757,33432
10.107972,28566
10.108186,27990
10.108402,22309
10.108618,16676
10.108834,8338
10.109051,2592
10.109324,7761
10.110321,54925
10.111322,30295
10.112323,5649
10.113323,13555
10.114322,3328
10.115321,20565
10.116322,1856
10.117321,4433
10.118322,2896
10.119323,7377
10.120321,45403
10.121322,7089
10.122321,12835
10.123323,12499
10.124321,11858
10.125321,33768
10.126325,7073
10.127323,1056
10.128322,1920
10.129322,3408
10.130322,2288
10.131320,4433
10.132323,1808
10.133321,11106
10.134323,7617
10.135321,2912
10.136323,8610
10.137323,5313
10.138323,14851
10.139321,24870
10.140322,4048
10.141321,7441
10.142322,2432
10.143324,1600
10.144322,29031
10.145322,4145
10.146321,10930
10.147322,23381
10.148323,24405
10.149322,2864
10.150322,5825
10.151322,54429
10.152323,31911
10.153322,1872
10.154321,4641
10.155322,6017
10.156321,14787
10.157320,16996
10.158323,1536
10.159322,8081
10.160339,4977
10.161329,8594
10.162326,2832
10.163323,23621
10.164321,10946
10.165322,7073
10.166322,1648
10.167322,10162
10.168320,2064
10.169322,40425
10.170320,1808
10.171322,2400
10.172325,8097
10.173322,21589
10.174322,23669
10.175321,24149
10.176323,10482
10.177321,1200
10.178322,3040
10.179322,7617
10.180323,15251
10.181321,15427
10.182322,16468
10.183324,11650
10.184323,36104
10.185320,18900
10.186324,34088
10.187322,8194
10.188324,22325
10.189321,44682
10.190322,33864
10.191321,5793
10.192322,11586
10.193321,11330
10.194324,12835
10.195320,18660
10.196323,5473
10.197319,28839
10.198322,33000
10.199322,24213
10.200322,848
10.201323,3536
10.202322,10658
10.203323,14547
10.204322,16484
10.205322,11410
10.206322,18772
10.207321,6673
10.208322,24790
10.209322,9554
10.210324,8226
10.211322,4753
10.212323,40313
10.213324,44986
10.214321,31959
10.215323,3936
10.216320,24133
10.217321,18452
10.218323,7361
10.219322,1440
10.220320,17588
10.221321,1808
10.222323,24549
10.223321,5169
10.224340,4769
10.225329,7297
10.226325,5569
10.227321,1008
10.228322,13507
10.229322,21797
10.230324,15315
10.231323,7345
10.232324,10386
10.233321,6737
10.234321,6833
10.235322,20004
10.236322,12371
10.237324,42650
10.238320,28294
10.239322,15939
10.240323,13059
10.241322,6145
10.242324,3632
10.243322,41114
10.244323,27606
10.245323,11922
10.246324,17092
10.247322,3664
10.248322,26950
10.249321,18132
10.250322,4785
10.251323,17492
10.252320,30343
10.253322,22693
10.254321,1248
10.255323,8594
10.256321,25510
10.257322,2464
10.258321,1824
10.259325,24389
10.260322,2240
10.261322,1120
10.262322,3600
10.263323,6289
10.264321,4561
10.265321,10514
10.266321,14147
10.267322,2400
10.268321,16339
10.269324,25958
10.270321,4145
10.271321,1408
10.272322,6817
10.273320,3584
10.274323,5073
10.275324,1184
10.276321,5361
10.277322,11650
10.278323,40713
10.279321,4577
10.280322,11762
10.281321,13971
10.282323,23365
10.394651,1824
10.395268,1024
10.395681,1168
10.396062,1520
10.396440,1760
10.396884,2048
10.397259,1968
10.397640,784
10.398016,1216
10.398412,2384
10.398787,2784
10.399167,1088
10.399550,2048
10.400322,3440
10.401322,1344
10.402322,992
10.403323,1632
10.404321,1328
10.405323,6241
10.406323,960
10.407322,1216
10.408324,1056
10.409321,448
10.410322,2144
10.411322,12339
10.412323,6097
10.413323,5041
10.414321,3856
10.415389,1056
10.416325,1536
10.417320,2272
10.418324,11666
10.419322,3216
10.420323,496
10.421322,5201
10.422322,16516
10.423321,3904
10.424321,7457
10.425323,12691
10.426322,6961
10.427321,5361
10.428322,3152
10.429322,8530
10.430322,6977
10.431324,13123
10.432321,6337
10.433321,5345
10.434323,2112
10.435322,528
10.436319,20821
10.437323,8610
10.438322,5409
10.439320,10946
10.440322,6801
10.441323,1008
10.442321,1424
10.443325,2592
10.444322,1392
10.445322,3664
10.446322,4177
10.447321,2960
10.448322,768
10.449324,4080
10.450321,3296
10.451323,2576
10.452322,2000
10.453321,1088
10.454323,1328
10.455322,1344
10.456320,1216
10.457322,880
10.458322,3552
10.459324,976
10.460324,1808
10.461322,656
10.462320,928
10.463322,592
10.464324,1440
10.465320,3200
10.466322,2848
10.467322,1440
10.468324,736
10.469320,688
10.470322,7633
10.471321,4673
10.472324,1328
10.473323,2400
10.474323,7057
10.475322,4977
10.476322,2384
10.477320,6241
10.478322,976
10.479390,2384
10.480332,1568
10.481322,544
10.482324,6321
10.483322,1456
10.484322,2608
10.485323,2336
10.486323,7073
10.487322,2368
10.488323,656
10.489322,2368
10.490322,4161
10.491322,2064
10.492324,2752
10.493322,416
10.494321,3328
10.495323,1568
10.496323,8177
10.497320,3920
10.498322,8290
10.499323,912
10.500322,832
10.501322,800
10.502322,1840
10.503324,2496
10.504323,1024
10.505324,704
10.506324,944
10.507322,1456
10.508320,1552
10.509321,7009
10.510324,2320
10.511323,4369
10.512321,576
10.513321,1872
10.514320,4048
10.515320,1568
10.516322,1808
10.517322,3824
10.518322,11298
10.519322,992
10.520323,6017
10.521322,5969
10.522321,576
10.523323,2960
10.524322,1024
10.525322,960
10.526323,2976
10.527324,1168
10.528322,2048
10.529322,2096
10.530322,784
10.531323,416
10.532323,4129
10.533322,6161
10.534324,800
10.535324,464
10.536322,1664
10.537324,496
10.538321,464
10.539321,560
10.540322,480
10.541322,1584
10.542324,752
10.543322,768
10.544337,880
10.545325,928
10.546322,1888
10.547322,1232
10.548321,1120
10.549324,448
10.550322,1200
10.551321,3120
10.552322,3728
10.553324,512
10.554322,3600
10.555321,816
10.556323,1872
10.557323,1456
10.558324,2080
10.559322,624
10.560322,1184
10.561322,1296
10.562322,320
10.563323,848
10.564322,752
10.565322,2176
10.566322,704
10.567321,640
10.568324,3760
10.569322,704
10.570325,2368
10.571322,928
10.572320,1440
10.573325,576
10.574322,592
10.575321,2576
10.576321,800
10.577321,896
10.578322,1600
10.579323,608
10.580322,1104
10.581324,2400
10.582320,560
10.583324,1040
10.584323,560
10.585321,544
10.586322,544
10.741095,1216
10.741891,2752
10.742454,2688
10.742985,1472
10.743520,912
10.744112,656
10.744640,704
10.745166,1424
10.745698,1312
10.746245,800
10.746774,1344
10.747311,912
10.747838,1200
10.748375,608
10.748903,2192
10.749439,3664
10.749971,2624
10.750529,1040
10.751322,912
10.752322,1776
10.753320,784
10.754322,784
10.755322,672
10.756319,2368
10.757322,976
10.758320,912
10.759325,576
10.760324,1504
10.761321,896
10.762322,656
10.763322,832
10.764324,912
10.765322,688
10.766322,400
10.767322,640
10.768322,400
10.769322,352
10.770322,432
10.771323,1104
10.772322,992
10.773324,2432
10.774324,672
10.775320,2576
10.776322,4225
10.777322,720
10.778322,1696
10.779321,1056
10.780320,848
10.781322,2752
10.782325,672
10.783322,3600
10.784322,976
10.785322,848
10.786324,512
10.787323,800
10.788322,1216
10.789321,1984
10.790324,848
10.791321,704
10.792322,864
10.793320,512
10.794321,608
10.795323,800
10.796322,1344
10.797323,1088
10.798320,832
10.799347,480
10.800325,688
10.801322,464
10.802322,3264
10.803323,992
10.804324,512
10.805322,720
10.806321,1792
10.807322,2624
10.808322,432
10.809322,2064
10.810322,864
10.811322,896
10.812322,720
10.813322,640
10.814323,1840
10.815322,3776
10.816322,864
10.817322,2448
10.818323,1536
10.819323,3120
10.820322,640
10.821324,592
10.822322,992
10.823322,1072
10.824323,1280
10.825322,592
10.826323,336
10.827322,560
10.828323,448
10.829324,944
10.830324,800
10.831322,608
10.832321,848
10.833323,1056
10.834322,512
10.835322,352
10.836322,6225
10.837323,496
10.838321,1600
10.839322,1728
10.840323,1248
10.841324,416
10.842322,2448
10.843323,544
10.844321,1024
10.845322,1520
10.846324,784
10.847322,432
10.848321,544
10.849324,1328
10.850321,736
10.851321,512
10.852322,944
10.853320,704
10.854321,768
10.855324,720
10.856322,816
10.857322,544
10.858322,384
10.859324,688
10.860323,416
10.861323,1120
10.862324,1408
10.863334,928
10.864328,800
10.865324,464
10.866324,736
10.867323,656
10.868321,672
10.869323,1088
10.870323,1664
10.871322,720
10.872321,448
10.873321,640
10.874321,640
10.875322,768
10.876323,768
10.877321,1072
10.878323,416
10.879323,1472
10.880324,576
10.881323,208
10.882324,720
10.883322,2240
10.884322,1456
10.885322,768
10.886323,1120
10.887323,2144
10.888322,576
10.889323,528
10.890321,1920
10.891324,2224
10.892322,1760
10.893320,848
10.894321,560
10.895322,864
10.896324,1136
10.897322,944
10.898323,1040
10.899321,768
10.900322,1040
10.901320,512
10.902322,864
10.903321,1440
10.904322,656
10.905321,2880
10.906322,496
10.907322,1440
10.908323,5073
10.909321,512
10.910322,352
10.911321,480
10.912320,992
10.913320,688
10.914322,720
10.915322,1040
10.916322,1040
10.917322,1440
10.918323,1440
10.919322,656
10.920324,1072
10.921322,1024
10.922322,384
10.923322,512
10.924322,864
10.925320,1200
10.926324,2112
10.927346,864
10.928330,1024
10.929322,1600
10.930322,1584
10.931319,624
10.932323,704
11.083528,1216
11.084467,848
11.085186,1360
11.085884,1024
11.086568,768
11.087317,1072
11.087997,528
11.088680,576
11.089365,976
11.090065,736
11.090750,1120
11.091432,1968
11.092117,1088
11.092801,1424
11.093484,976
11.094168,1152
11.094853,960
11.095565,848
11.096250,912
11.096942,592
11.097633,928
11.098325,880
11.099011,656
11.099705,1104
11.100400,672
11.101323,720
11.102322,1088
11.103323,976
11.104322,528
11.105321,656
11.106322,528
11.107322,960
11.108321,896
11.109323,992
11.110322,512
11.111321,704
11.112323,3296
11.113323,1040
11.114323,768
11.115323,800
11.116322,768
11.117322,576
11.118324,624
11.119322,640
11.120344,1424
11.121327,800
11.122322,1216
11.123323,4497
11.124324,976
11.125322,816
11.126322,2304
11.127322,2704
11.128321,1296
11.129322,400
11.130323,960
11.131323,448
11.132321,736
11.133322,608
11.134324,1040
11.135321,1152
11.136323,480
11.137324,1008
11.138324,480
11.139322,704
11.140322,512
11.141321,3232
11.142323,464
11.143321,1056
11.144322,1936
11.145322,640
11.146323,832
11.147323,1600
11.148322,1040
11.149321,832
11.150320,432
11.151321,400
11.152324,592
11.153323,640
11.154320,1584
11.155322,592
11.156321,672
11.157324,560
11.158323,800
11.159322,544
11.160322,544
11.161322,1104
11.162323,816
11.163322,1824
11.164321,736
11.165322,784
11.166321,864
11.167321,608
11.168322,864
11.169321,672
11.170324,1968
11.171322,512
11.172321,672
11.173322,608
11.174321,688
11.175321,1104
11.176322,416
11.177322,464
11.178322,848
11.179322,1120
11.180320,656
11.181324,608
11.182320,608
11.183321,576
11.184339,1376
11.185324,576
11.186324,4417
11.187323,512
11.188322,1200
11.189322,640
11.190322,2960
11.191322,736
11.192322,816
11.193323,656
11.194322,720
11.195322,1120
11.196321,1584
11.197322,640
11.198322,1024
11.199322,512
11.200322,528
11.201322,688
11.202322,1216
11.203320,3232
11.204321,1536
11.205322,576
11.206323,480
11.207324,496
11.208324,560
11.209322,912
11.210323,3248
11.211321,672
11.212322,1776
11.213324,928
11.214322,448
11.215321,1248
11.216323,1248
11.217322,544
11.218323,832
11.219321,816
11.220324,592
11.221322,1056
11.222322,928
11.223322,560
11.224322,608
11.225322,816
11.226321,1360
11.227320,1440
11.228324,1360
11.229324,544
11.230323,672
11.231324,656
11.232323,736
11.233324,464
11.234323,1536
11.235321,1920
11.236320,928
11.237322,768
11.238322,720
11.239322,464
11.240322,432
11.241322,448
11.242320,592
11.243322,592
11.244322,528
11.245322,768
11.246322,528
11.247324,464
11.248337,768
11.249327,864
11.250321,752
11.251324,784
11.252322,2224
11.253321,848
11.254321,2128
11.255322,576
11.256322,1632
11.257322,2304
11.258323,736
11.259324,672
11.260322,656
11.261322,656
11.262321,1280
11.263323,1200
11.264322,720
11.265322,1072
11.266324,1232
11.267322,1120
11.268322,1232
11.269323,1504
11.270322,912
11.271324,1568
11.272323,4273
11.273322,2864
11.274322,2912
11.275324,1024
11.395277,1952
11.395779,992
11.396053,592
11.396311,640
11.396559,592
11.396829,432
11.397071,1072
11.397318,848
11.397563,1360
11.397823,864
11.398065,1680
11.398323,1344
11.399325,480
11.400323,704
11.401323,432
11.402324,832
11.403324,416
11.404321,592
11.405324,736
11.406323,1280
11.407322,816
11.408322,928
11.409322,1104
11.410322,832
11.411324,2608
11.412322,752
11.413322,832
11.414322,672
11.415322,464
11.416324,1648
11.417323,464
11.418321,896
11.419323,576
11.420323,576
11.421321,880
11.422323,592
11.423322,656
11.424322,1024
11.425322,1264
11.426323,768
11.427322,656
11.428321,752
11.429323,848
11.430320,1040
11.431323,992
11.432322,1040
11.433325,640
11.434321,720
11.435322,1424
11.436322,1152
11.437320,448
11.438322,1312
11.439321,544
11.440346,656
11.441327,688
11.442322,1696
11.443322,1424
11.444322,816
11.445320,560
11.446322,400
11.447324,768
11.448323,848
11.449322,688
11.450322,528
11.451324,1536
11.452323,1568
11.453321,672
11.454323,688
11.455322,704
11.456322,1088
11.457323,1552
11.458323,640
11.459320,672
11.460322,1248
11.461320,640
11.462322,768
11.463322,688
11.464324,656
11.465320,848
11.466322,928
11.467320,784
11.468324,672
11.469322,912
11.470322,1024
11.471321,704
11.472322,608
11.473323,736
11.474322,624
11.475319,1152
11.476322,608
11.477322,752
11.478324,544
11.479323,1152
11.480322,576
11.481322,864
11.482322,640
11.483322,1008
11.484325,704
11.485323,1360
11.486322,864
11.487322,800
11.488320,704
11.489322,464
11.490323,496
11.491322,736
11.492320,1152
11.493324,1328
11.494320,2064
11.495322,2960
11.496323,1024
11.497322,656
11.498321,1152
11.499322,896
11.500323,592
11.501321,576
11.502323,432
11.503322,544
11.504340,1024
11.505330,2480
11.506326,864
11.507322,1072
11.508322,1360
11.509323,848
11.510322,944
11.511323,768
11.512322,432
11.513322,5073
11.514322,1024
11.515321,640
11.516324,752
11.517323,720
11.518322,816
11.519322,1728
11.520321,720
11.521322,592
11.522324,624
11.523323,624
11.524323,1232
11.525323,1072
11.526323,592
11.527321,992
11.528322,1184
11.529323,736
11.530323,1152
11.531320,1792
11.532323,912
11.533322,768
11.534324,1568
11.535320,720
11.536322,544
11.537324,496
11.538322,832
11.539320,784
11.540322,1152
11.541320,656
11.542321,832
11.543323,1504
11.544325,848
11.545322,672
11.546322,848
11.547322,768
11.548322,3072
11.549325,528
11.550322,560
11.551321,1568
11.552322,592
11.553325,768
11.554323,640
11.555320,784
11.556323,1072
11.557322,4609
11.558322,672
11.559322,992
11.560322,848
11.561323,1792
11.562322,640
11.563320,1360
11.564322,2096
11.565322,640
11.566320,848
11.567337,784
11.568326,576
11.569325,512
11.570324,704
11.571323,768
11.572321,864
11.573322,800
11.574322,720
11.575321,592
11.576321,704
11.577323,640
11.578320,640
11.579323,816
11.580322,688
11.581322,592
11.582322,1168
11.583320,608
11.584322,800
11.585322,464
11.586324,864
11.744835,1952
11.745498,1024
11.745921,1040
11.746327,640
11.746726,768
11.747190,1104
11.747593,944
11.747988,704
11.748390,528
11.748807,512
11.749202,528
11.749604,1056
11.749999,1808
11.750406,1376
11.751321,1136
11.752323,448
11.753324,2400
11.754321,1264
11.755323,848
11.756323,1376
11.757324,1568
11.758321,480
11.759343,880
11.760330,576
11.761325,560
11.762322,688
11.763319,784
11.764322,832
11.765322,2432
11.766322,1856
11.767321,1632
11.768322,912
11.769323,672
11.770323,576
11.771322,960
11.772322,736
11.773321,832
11.774322,2592
11.775321,800
11.776322,2848
11.777324,1184
11.778322,768
11.779323,800
11.780323,560
11.781323,656
11.782323,656
11.783324,544
11.784322,976
11.785321,2368
11.786322,944
11.787322,912
11.788322,656
11.789322,976
11.790322,1072
11.791323,704
11.792322,864
11.793321,1216
11.794320,736
11.795322,1648
11.796320,912
11.797324,800
11.798323,1008
11.799322,2080
11.800323,1104
11.801322,1344
11.802321,992
11.803322,2016
11.804323,1632
11.805322,720
11.806322,560
11.807321,576
11.808322,848
11.809322,976
11.810322,736
11.811324,720
11.812323,672
11.813322,528
11.814321,688
11.815322,800
11.816323,608
11.817323,1056
11.818322,672
11.819322,640
11.820322,976
11.821322,1024
11.822324,480
11.823340,784
11.824329,384
11.825325,1824
11.826324,960
11.827323,800
11.828322,960
11.829322,1072
11.830322,592
11.831322,816
11.832320,1040
11.833323,832
11.834323,944
11.835322,1184
11.836320,1456
11.837322,1280
11.838321,640
11.839322,528
11.840321,928
11.841323,688
11.842321,784
11.843323,1808
11.844321,1024
11.845324,1248
11.846322,544
11.847324,688
11.848323,784
11.849322,1104
11.850324,736
11.851324,1168
11.852321,1552
11.853322,1072
11.854323,928
11.855320,672
11.856324,592
11.857322,1440
11.858322,1344
11.859322,736
11.860322,1328
11.861324,1008
11.862324,1008
11.863322,1088
11.864322,592
11.865322,1312
11.866322,768
11.867324,608
11.868323,720
11.869322,848
11.870322,960
11.871321,944
11.872321,944
11.873323,720
11.874321,704
11.875323,976
11.876323,976
11.877320,1536
11.878321,976
11.879323,768
11.880323,592
11.881323,528
11.882322,608
11.883323,736
11.884322,896
11.885320,608
11.886321,496
11.887336,640
11.888327,768
11.889322,1072
11.890322,1600
11.891322,1552
11.892322,1296
11.893321,576
11.894324,1520
11.895323,624
11.896322,784
11.897324,816
11.898325,848
11.899322,1312
11.900322,816
11.901323,800
11.902322,912
11.903324,1088
11.904323,1872
11.905322,464
11.906322,720
11.907321,784
11.908322,992
11.909322,608
11.910321,480
11.911321,944
11.912323,2432
11.913324,720
11.914320,720
11.915323,736
11.916323,1360
11.917321,784
11.918322,576
11.919321,1408
11.920321,2224
11.921321,704
11.922321,960
11.923323,768
11.924322,2784
11.925321,720
11.926323,864
11.927322,2352
11.928324,1856
11.929322,1856
11.930322,1168
11.931323,784
11.932323,1232
11.933323,672
11.934322,624
11.935322,1056
11.936322,832
12.091439,1072
12.092230,848
12.092818,1152
12.093369,720
12.093919,1504
12.094538,1856
12.095085,2240
12.095636,1168
12.096183,608
12.096753,928
12.097308,3520
12.097855,3376
12.098413,1056
12.098964,576
12.099516,736
12.100062,544
12.100617,928
12.101192,1120
12.101749,816
12.102323,896
12.103322,800
12.104322,944
12.105323,1040
12.106320,864
12.107322,816
12.108323,848
12.109322,1088
12.110324,1760
12.111322,816
12.112322,816
12.113323,768
12.114324,864
12.115322,1040
12.116322,1312
12.117322,1456
12.118322,1280
12.119320,528
12.120322,832
12.121324,768
12.122322,3200
12.123321,992
12.124322,2192
12.125322,1152
12.126321,896
12.127320,1888
12.128321,1216
12.129323,832
12.130322,896
12.131320,1312
12.132323,912
12.133322,832
12.134322,1216
12.135323,1056
12.136320,720
12.137322,896
12.138323,640
12.139323,928
12.140323,2784
12.141320,1728
12.142320,1120
12.143346,1024
12.144325,704
12.145323,976
12.146324,832
12.147320,1088
12.148323,944
12.149323,528
12.150322,1536
12.151323,1088
12.152321,1536
12.153322,1152
12.154321,944
12.155322,1008
12.156322,1040
12.157321,640
12.158322,656
12.159322,832
12.160322,1632
12.161323,1104
12.162322,848
12.163323,1936
12.164321,816
12.165320,896
12.166322,896
12.167322,736
12.168321,912
12.169321,1328
12.170323,736
12.171323,1088
12.172320,992
12.173322,1792
12.174321,992
12.175321,1456
12.176321,608
12.177324,464
12.178322,704
12.179324,944
12.180324,672
12.181323,1200
12.182322,1360
12.183322,1056
12.184322,1056
12.185322,1744
12.186322,3392
12.187322,1232
12.188322,1424
12.189322,688
12.190323,752
12.191321,848
12.192324,1280
12.193322,4048
12.194323,1472
12.195322,848
12.196322,848
12.197322,1936
12.198322,896
12.199321,816
12.200322,976
12.201322,1152
12.202324,816
12.203321,1232
12.204323,960
12.205322,848
12.206323,448
12.207366,848
12.208328,896
12.209324,928
12.210324,1360
12.211322,1040
12.212323,976
12.213322,960
12.214322,1072
12.215324,976
12.216321,1088
12.217323,672
12.218321,1104
12.219323,1200
12.220323,1280
12.221321,992
12.222323,864
12.223320,1696
12.224324,736
12.225320,784
12.226321,1744
12.227323,1056
12.228324,960
12.229322,1024
12.230323,864
12.231322,1024
12.232322,928
12.233324,704
12.234321,1168
12.235319,896
12.236322,1376
12.237321,960
12.238322,1232
12.239320,3568
12.240322,2064
12.241322,1312
12.242323,1152
12.243322,720
12.244320,1280
12.245320,1008
12.246321,720
12.247322,1072
12.248322,1872
12.249322,1248
12.250324,816
12.251320,1216
12.252323,976
12.253320,912
12.254323,592
12.255322,672
12.256321,832
12.257323,2560
12.258323,816
12.259322,1408
12.260324,2240
12.261320,768
12.262323,2000
12.263324,1216
12.264322,1200
12.265323,1088
12.266322,816
12.267322,896
12.268324,1008
12.269324,832
12.270320,2224
12.271381,592
12.272327,688
12.273322,960
12.274323,896
12.275324,848
12.276322,1296
12.277322,1216
12.278320,832
12.279323,1200
12.280320,944
12.281323,768
12.282324,592
12.391316,912
12.392275,816
12.393026,976
12.393750,848
12.394466,752
12.395242,336
12.395951,1024
12.396661,688
12.397370,816
12.398098,768
12.398814,592
12.399684,784
12.400413,736
12.401131,816
12.401850,928
12.402566,464
12.403280,656
12.404024,736
12.404741,544
12.405460,464
12.406173,2176
12.406892,416
12.407611,912
12.408336,544
12.409053,736
12.409775,32
12.410500,1104
12.411221,1040
12.411945,896
12.412672,864
12.413398,816
12.414322,736
12.415322,912
12.416324,800
12.417321,864
12.418322,864
12.419322,848
12.420321,816
12.421322,1776
12.422324,1088
12.423322,752
12.424320,1536
12.425323,944
12.426321,1072
12.427322,976
12.428325,2064
12.429322,896
12.430319,1232
12.431321,1888
12.432323,848
12.433320,720
12.434323,800
12.435322,848
12.436324,512
12.437321,1632
12.438325,672
12.439322,1616
12.440322,704
12.441322,800
12.442323,1488
12.443322,3008
12.444324,848
12.445323,1040
12.446323,960
12.447323,848
12.448322,1168
12.449323,752
12.450323,848
12.451322,912
12.452322,1792
12.453324,784
12.454322,1184
12.455324,1536
12.456323,864
12.457321,608
12.458324,896
12.459323,960
12.460322,912
12.461320,944
12.462323,928
12.463322,960
12.464336,512
12.465327,704
12.466321,896
12.467325,944
12.468322,1760
12.469323,832
12.470321,704
12.471323,832
12.472323,1232
12.473322,832
12.474322,832
12.475322,2656
12.476323,1632
12.477322,1088
12.478322,976
12.479323,864
12.480324,1232
12.481325,896
12.482323,1168
12.483322,848
12.484322,320
12.485323,1088
12.486320,608
12.487324,960
12.488322,720
12.489322,864
12.490322,1152
12.491321,704
12.492324,912
12.493323,752
12.494321,816
12.495324,1232
12.496322,1200
12.497320,1664
12.498322,1632
12.499322,1056
12.500322,704
12.501321,832
12.502322,1088
12.503323,944
12.504320,1184
12.505322,832
12.506322,896
12.507324,784
12.508323,2640
12.509322,992
12.510320,768
12.511322,1696
12.512322,1856
12.513321,944
12.514324,800
12.515322,2112
12.516322,784
12.517321,896
12.518322,640
12.519322,736
12.520322,800
12.521322,848
12.522320,1120
12.523322,1328
12.524322,1488
12.525323,2016
12.526321,672
12.527322,864
12.528339,608
12.529327,2496
12.530322,1120
12.531322,1056
12.532323,320
12.533322,1280
12.534322,1152
12.535322,1120
12.536321,848
12.537321,1200
12.538324,832
12.539321,1168
12.540324,944
12.541323,1200
12.542322,816
12.543322,1056
12.544320,848
12.545322,768
12.555912,1040
12.556146,1840
12.556371,1808
12.556581,1616
12.556792,2768
12.557004,1280
12.557218,816
12.557436,768
12.557656,832
12.557875,1104
12.558322,1152
12.559324,1232
12.560320,784
12.561322,1056
12.562323,1200
12.563322,1216
12.564322,336
12.565321,976
12.566325,784
12.567322,832
12.568323,848
12.569322,1056
12.570323,1424
12.571324,784
12.572322,960
12.573322,864
12.574322,976
12.575322,1376
12.576322,1024
12.577322,3808
12.578323,1136
12.579323,1024
12.580323,704
12.581322,784
12.582320,656
12.583323,816
12.584323,960
12.741379,688
12.741931,1040
12.742252,1040
12.742548,880
12.742832,1104
12.743184,1184
12.743474,1488
12.743761,1200
12.744050,896
12.744361,592
12.744651,1040
12.744937,640
12.745324,816
12.746323,1200
12.747321,464
12.748321,400
12.749321,1024
12.750325,928
12.751322,720
12.752322,720
12.753322,592
12.754321,400
12.755323,720
12.756320,1248
12.757321,1360
12.758322,560
12.759322,528
12.760323,976
12.761322,720
12.762323,992
12.763321,2464
12.764321,704
12.765322,656
12.766322,784
12.767323,1056
12.768322,800
12.769323,1232
12.770322,640
12.771322,1152
12.772321,624
12.773322,704
12.774323,784
12.775323,928
12.776322,2608
12.777323,976
12.778322,2336
12.779322,1184
12.780322,960
12.781322,544
12.782324,1824
12.783320,512
12.784344,320
12.785329,928
12.786322,416
12.787324,896
12.788322,688
12.789324,1120
12.790322,1280
12.791322,1216
12.792323,672
12.793323,720
12.794322,448
12.795322,480
12.796324,2000
12.797322,1424
12.798322,1664
12.799323,1040
12.800322,1712
12.801323,1056
12.802322,1424
12.803322,1232
12.804322,512
12.805323,720
12.806322,1040
12.807322,1232
12.808323,704
12.809324,784
12.810322,1472
12.811321,1280
12.812322,1616
12.813324,1024
12.814323,1328
12.815321,640
12.816321,464
12.817323,768
12.818320,1280
12.819321,912
12.820321,464
12.821320,672
12.822324,688
12.823321,400
12.824322,688
12.825322,688
12.826321,448
12.827322,480
12.828324,768
12.829324,464
12.830323,992
12.831324,976
12.832324,1616
12.833320,464
12.834324,896
12.835322,608
12.836325,720
12.837321,608
12.838322,720
12.839322,784
12.840321,480
12.841322,1024
12.842323,2768
12.843323,1072
12.844324,1552
12.845322,688
12.846322,1104
12.847322,1104
12.848340,784
12.849327,880
12.850324,944
12.851321,400
12.852324,720
12.853320,496
12.854322,432
12.855322,272
12.856322,1072
12.857322,912
12.858321,832
12.859322,336
12.860322,944
12.861324,608
12.862322,672
12.863320,320
12.864323,576
12.865321,736
12.866321,464
12.867323,1056
12.868324,400
12.869322,768
12.870323,848
12.871324,848
12.872322,592
12.873322,432
12.874321,512
12.875323,720
12.876324,1168
12.877323,576
12.878323,576
12.879322,592
12.880323,688
12.881322,640
12.882323,1120
12.883323,544
12.884322,1664
12.885322,464
12.886322,656
12.887320,720
12.888324,928
12.889322,736
12.890323,2512
12.891324,1104
12.892321,784
12.893322,1312
12.894323,864
12.895321,544
12.896324,1536
12.897324,800
12.898322,608
12.899323,592
12.900320,400
12.901321,512
12.902320,1280
12.903323,512
12.904320,1248
12.905324,656
12.906322,912
12.907323,368
12.908324,704
12.909323,784
12.910322,1760
12.911324,992
12.912338,544
12.913327,992
12.914321,832
12.915325,816
12.916321,608
12.917323,672
12.918323,656
12.919323,704
12.920323,576
12.921324,800
12.922321,432
12.923324,704
12.924321,1488
12.925322,384
12.926322,384
12.927320,1296
12.928324,2064
12.929321,1744
12.930325,1040
12.931323,272
12.932323,528
13.091225,720
13.091940,1040
13.092427,544
13.092881,1232
13.093329,992
13.093837,880
13.094278,1344
13.094721,528
13.095162,720
13.095629,1632
13.096073,1616
13.096522,800
13.096960,640
13.097415,1008
13.097860,1888
13.098321,1616
13.099322,384
13.100321,528
13.101322,1120
13.102322,608
13.103434,1952
13.104328,3232
13.105321,704
13.106323,1408
13.107321,224
13.108322,832
13.109322,656
13.110322,1040
13.111325,560
13.112322,560
13.113322,896
13.114324,336
13.115321,1120
13.116321,480
13.117324,528
13.118323,304
13.119322,336
13.120322,448
13.121322,1008
13.122322,240
13.123322,224
13.124321,704
13.125322,1024
13.126322,704
13.127323,432
13.128322,400
13.129322,592
13.130321,1024
13.131323,496
13.132322,848
13.133322,736
13.134323,1968
13.135323,416
13.136321,496
13.137324,768
13.138323,544
13.139322,864
13.140322,736
13.141323,1936
13.142323,864
13.143321,448
13.144324,448
13.145322,608
13.146324,512
13.147321,688
13.148320,864
13.149323,1408
13.150322,560
13.151322,416
13.152323,672
13.153320,928
13.154324,1056
13.155323,608
13.156322,592
13.157322,528
13.158322,416
13.159324,512
13.160322,560
13.161322,480
13.162322,3264
13.163322,672
13.164323,448
13.165323,944
13.166322,688
13.167324,720
13.168337,1104
13.169326,400
13.170322,256
13.171320,400
13.172324,512
13.173321,512
13.174324,608
13.175321,272
13.176322,688
13.177321,400
13.178321,752
13.179323,672
13.180322,496
13.181322,352
13.182321,608
13.183320,528
13.184322,768
13.185322,864
13.186324,656
13.187320,688
13.188324,720
13.189322,704
13.190322,768
13.191322,640
13.192323,288
13.193322,672
13.194322,688
13.195321,752
13.196321,480
13.197323,736
13.198322,544
13.199321,464
13.200322,672
13.201322,528
13.202322,1056
13.203323,400
13.204323,560
13.205322,608
13.206321,784
13.207322,624
13.208321,768
13.209322,736
13.210322,560
13.211322,448
13.212322,768
13.213322,224
13.214320,656
13.215321,976
13.216322,1376
13.217322,752
13.218324,720
13.219324,400
13.220322,448
13.221323,1472
13.222323,640
13.223322,688
13.224323,896
13.225322,1184
13.226322,544
13.227322,672
13.228323,864
13.229320,704
13.230323,304
13.231323,1536
13.232342,624
13.233326,864
13.234326,848
13.235322,1136
13.236323,768
13.237319,592
13.238323,832
13.239323,736
13.240322,688
13.241322,432
13.242323,720
13.243322,656
13.244321,480
13.245322,800
13.246322,416
13.247322,752
13.248322,544
13.249324,800
13.250322,608
13.251323,720
13.252321,576
13.253323,1104
13.254322,832
13.255323,656
13.256323,608
13.257323,640
13.258322,1024
13.259322,608
13.260322,544
13.261323,1792
13.262321,432
13.263323,384
13.264323,384
13.265322,848
13.266322,528
13.267324,688
13.268322,896
13.269322,416
13.270322,736
13.271323,752
13.272320,944
13.273323,480
13.274321,1200
13.275322,608
13.276323,608
13.277320,1088
13.278322,704
13.279322,688
13.280322,592
13.281322,448
13.282322,1504
13.433199,800
13.434069,704
13.434701,704
13.435308,864
13.435904,768
13.436577,448
13.437168,512
13.437770,992
13.438369,576
13.438983,848
13.439584,928
13.440184,864
13.440785,576
13.441381,736
13.441979,656
13.442581,1008
13.443181,768
13.443807,1136
13.444410,576
13.445011,672
13.445617,384
13.446322,416
13.447322,528
13.448323,416
13.449321,544
13.450321,592
13.451324,576
13.452322,1024
13.453322,688
13.454323,784
13.455324,736
13.456324,688
13.457321,736
13.458320,960
13.459322,3072
13.460323,1984
13.461323,1552
13.462322,736
13.463324,640
13.464323,1088
13.465321,2096
13.466322,560
13.467323,1328
13.468322,832
13.469323,864
13.470323,704
13.471321,640
13.472322,1024
13.473324,784
13.474325,784
13.475321,1808
13.476322,560
13.477323,1216
13.478319,640
13.479322,992
13.480322,704
13.481322,1152
13.482323,480
13.483320,512
13.484323,1328
13.485323,416
13.486323,784
13.487340,640
13.488329,544
13.489326,560
13.490324,576
13.491324,704
13.492322,480
13.493325,480
13.494323,448
13.495321,416
13.496322,608
13.497322,528
13.498322,832
13.499323,480
13.500321,608
13.501323,688
13.502322,640
13.503322,480
13.504322,864
13.505321,1728
13.506320,688
13.507324,896
13.508322,352
13.509321,2128
13.510323,1920
13.511320,368
13.512324,928
13.513320,720
13.514321,784
13.515323,416
13.516321,848
13.517321,656
13.518322,608
13.519322,848
13.520324,592
13.521323,592
13.522322,1760
13.523320,464
13.524322,992
13.525323,480
13.526322,400
13.527324,416
13.528322,544
13.529322,2384
13.530322,1888
13.531322,496
13.532324,1472
13.533320,512
13.534323,688
13.535323,592
13.536322,672
13.537322,352
13.538322,512
13.539321,512
13.540322,464
13.541323,688
13.542321,768
13.543322,800
13.544323,704
13.545323,560
13.546324,848
13.547322,896
13.548323,2576
13.549324,1088
13.550322,416
13.551339,1040
13.552328,1104
13.553323,656
13.554322,896
13.555322,672
13.556323,576
13.557323,432
13.558320,912
13.559324,1072
13.560322,656
13.561322,2080
13.562323,352
13.563322,464
13.564322,1264
13.565322,528
13.566322,784
13.567322,576
13.568325,1280
13.569322,848
13.570323,1072
13.571320,688
13.572323,1488
13.573322,512
13.574321,528
13.575323,704
13.576324,576
13.577322,512
13.578322,592
13.579321,400
13.580323,512
13.581323,496
13.582323,768
13.583323,752
13.584322,592
13.585322,576
13.586321,880
13.587324,544
13.588322,816
13.589324,640
13.590323,576
13.591322,896
13.592322,1232
13.593322,688
13.594322,1168
13.595321,480
13.596322,1824
13.597322,512
13.598323,752
13.599323,640
13.600325,784
13.601323,960
13.602322,544
13.603324,1184
13.604324,544
13.605324,656
13.606320,704
13.607324,544
13.608323,800
13.609322,896
13.610324,1120
13.611322,896
13.612323,704
13.613320,560
13.614322,480
13.615341,640
13.616328,816
13.617322,560
13.618322,576
13.619321,4753
13.620322,3552
13.621322,1248
13.622323,960
13.623322,640
13.624322,1632
13.735825,1152
13.736852,1024
13.737660,704
13.738430,464
13.739187,1376
13.740020,912
13.740776,304
13.741534,1040
13.742291,960
13.743067,656
13.743944,944
13.744722,656
13.745488,912
13.746249,656
13.747014,720
13.747778,560
13.748542,736
13.749333,960
13.750094,656
13.750866,1024
13.751632,736
13.752399,576
13.753165,704
13.753936,1296
13.754705,672
13.755473,672
13.756238,1104
13.757010,1040
13.757783,176
13.758558,864
13.759333,768
13.760103,656
13.760878,736
13.761691,704
13.762463,848
13.763324,672
13.764322,2736
13.765320,656
13.766322,2128
13.767324,3376
13.768322,1952
13.769324,656
13.770324,1568
13.771323,2976
13.772322,560
13.773324,432
13.774321,528
13.775323,608
13.776322,1232
13.777322,688
13.778321,1472
13.779322,800
13.780322,1136
13.781322,592
13.782322,672
13.783324,640
13.784322,592
13.785324,1024
13.786319,1056
13.787323,512
13.788322,640
13.789322,672
13.790322,544
13.791324,544
13.792322,800
13.802595,800
13.802825,1168
13.803042,832
13.803248,560
13.803465,928
13.803675,464
13.803887,816
13.804099,800
13.804319,1200
13.804539,960
13.805324,1216
13.806322,784
13.807323,624
13.808343,704
13.809328,1376
13.810325,576
13.811323,592
13.812324,784
13.813322,976
13.814320,768
13.815324,416
13.816321,640
13.817322,608
13.818322,656
13.819323,560
13.820321,416
13.821322,400
13.822322,896
13.823322,832
13.824321,592
13.825323,512
13.826322,336
13.827322,480
13.828322,1072
13.829323,640
13.830321,560
13.831321,704
13.832322,672
13.833323,656
13.834322,640
13.835322,688
13.836322,816
13.837321,576
13.838322,768
13.839324,1184
13.840322,800
13.841322,512
13.842323,704
13.843322,480
13.844322,1984
13.845321,608
13.846324,768
13.847323,496
13.848322,544
13.849323,752
13.850323,640
13.851322,656
13.852321,1120
13.853323,560
13.854322,576
13.855322,592
13.856324,912
13.857322,1120
13.858322,1168
13.859322,512
13.860324,640
13.861322,464
13.862324,400
13.863321,704
13.864323,896
13.865323,672
13.866324,448
13.867320,816
13.868321,768
13.869322,1024
13.870324,640
13.871324,704
13.872339,816
13.873325,2128
13.874323,464
13.875322,784
13.876322,832
13.877324,448
13.878322,768
13.879322,592
13.880321,720
13.881323,976
13.882322,448
13.883322,720
13.884321,704
13.885324,432
13.886322,320
13.887322,752
13.888322,688
13.889322,560
13.890323,560
13.891321,1248
13.892322,784
13.893323,528
13.894319,512
13.895322,528
13.896322,544
13.897324,592
13.898322,832
13.899322,672
13.900323,736
13.901322,640
13.902322,512
13.903324,880
13.904322,384
13.905323,864
13.906324,640
13.907320,720
13.908324,592
13.909324,864
13.910323,976
13.911323,768
13.912321,688
13.913324,576
13.914321,592
13.915323,608
13.916324,448
13.917323,816
13.918324,688
13.919322,1104
13.920322,896
13.921322,656
13.922322,640
13.923324,688
13.924321,1088
13.925322,1216
13.926324,928
13.927321,976
13.928322,1280
13.929322,1488
14.094261,816
14.094866,912
14.095233,944
14.095591,864
14.095934,704
14.096347,672
14.096690,1216
14.097030,656
14.097375,1040
14.097730,1168
14.098077,512
14.098427,320
14.098773,608
14.099321,688
14.100322,784
14.101320,640
14.102322,688
14.103321,768
14.104322,592
14.105323,672
14.106322,688
14.107323,800
14.108323,768
14.109322,896
14.110322,496
14.111323,576
14.112324,816
14.113325,736
14.114323,640
14.115323,640
14.116321,1088
14.117322,480
14.118322,576
14.119323,672
14.120323,1216
14.121322,896
14.122323,960
14.123322,608
14.124325,496
14.125323,688
14.126322,544
14.127321,992
14.128345,864
14.129327,464
14.130324,512
14.131324,720
14.132320,1104
14.133321,624
14.134323,560
14.135321,960
14.136322,816
14.137321,800
14.138321,768
14.139323,512
14.140323,656
14.141323,864
14.142322,800
14.143323,704
14.144321,672
14.145323,768
14.146324,512
14.147322,1088
14.148320,1200
14.149320,848
14.150323,928
14.151322,592
14.152321,704
14.153321,784
14.154321,704
14.155322,752
14.156324,544
14.157321,752
14.158322,672
14.159325,640
14.160322,576
14.161322,768
14.162323,800
14.163320,1712
14.164322,736
14.165322,624
14.166322,896
14.167322,1168
14.168323,1392
14.169322,944
14.170321,864
14.171323,784
14.172322,560
14.173322,1536
14.174324,1920
14.175323,1600
14.176323,816
14.177323,400
14.178320,848
14.179321,1184
14.180320,1056
14.181323,976
14.182322,592
14.183322,1312
14.184322,784
14.185322,688
14.186324,576
14.187322,720
14.188322,800
14.189320,672
14.190321,1008
14.191322,864
14.192343,832
14.193325,656
14.194322,736
14.195322,720
14.196323,896
14.197323,528
14.198320,1072
14.199323,672
14.200323,672
14.201323,512
14.202322,800
14.203320,720
14.204319,704
14.205322,720
14.206323,560
14.207323,1264
14.208323,1232
14.209323,736
14.210323,672
14.211321,752
14.212324,896
14.213321,656
14.214321,976
14.215323,560
14.216321,1616
14.217322,1984
14.218322,1024
14.219324,768
14.220324,1104
14.221322,832
14.222322,1168
14.223322,816
14.224322,928
14.225322,800
14.226322,560
14.227320,1296
14.228323,1072
14.229322,800
14.230324,608
14.231323,1008
14.232324,928
14.233322,784
14.234322,1104
14.235320,720
14.236323,704
14.237322,960
14.238322,1312
14.239323,1024
14.240322,784
14.241324,784
14.242325,672
14.243322,1312
14.244320,800
14.245322,544
14.246323,656
14.247322,672
14.248322,864
14.249323,848
14.250322,528
14.251323,1088
14.252322,3008
14.253323,816
14.254323,656
14.255323,800
14.256338,896
14.257328,1072
14.258320,1040
14.259324,688
14.260322,976
14.261322,608
14.262324,736
14.263323,672
14.264322,528
14.265321,832
14.266323,592
14.267322,736
14.268323,720
14.269322,992
14.270322,512
14.271324,432
14.272322,928
14.273322,784
14.274322,576
14.275324,768
14.276320,992
14.277320,1136
14.278321,640
14.279322,960
14.280322,640
14.281324,1152
14.282320,2800
14.283323,1168
14.284321,656
14.285322,800
14.437578,736
14.438329,512
14.438851,992
14.439358,784
14.439854,592
14.440420,896
14.440916,928
14.441412,320
14.441905,944
14.442419,848
14.442916,1120
14.443415,944
14.443919,992
14.444420,864
14.444917,1072
14.445418,832
14.446323,688
14.447323,352
14.448346,1360
14.449325,480
14.450323,1184
14.451320,1088
14.452323,1296
14.453322,848
14.454322,736
14.455321,976
14.456323,656
14.457320,832
14.458319,992
14.459321,816
14.460322,1296
14.461320,592
14.462324,592
14.463324,1088
14.464323,848
14.465323,848
14.466320,912
14.467322,1040
14.468321,896
14.469321,560
14.470324,816
14.471323,928
14.472322,640
14.473324,1056
14.474322,1280
14.475322,784
14.476319,848
14.477320,848
14.478322,1088
