Tempo(s),EMG_Value
0.004819,672
0.006317,656
0.006697,2896
0.007669,1088
0.008663,1632
0.009659,1280
0.010662,1504
0.011663,1952
0.012661,1552
0.013661,2928
0.014661,1680
0.015661,1360
0.016661,1168
0.017661,1328
0.018663,1568
0.019660,2240
0.020662,2672
0.021663,4529
0.022659,1952
0.023661,3744
0.024660,1216
0.025661,1584
0.026660,1552
0.027663,1200
0.028662,1504
0.029661,1808
0.030661,1152
0.031662,1552
0.032661,1408
0.033662,1424
0.034663,2112
0.035661,2128
0.036662,1712
0.037660,1472
0.038661,1296
0.039679,1200
0.040664,1024
0.041660,1328
0.042661,1488
0.043663,2560
0.044662,1296
0.045661,1376
0.046662,1536
0.047662,2336
0.048663,2000
0.049663,1392
0.050661,1744
0.051662,1680
0.052660,2480
0.053662,1584
0.054660,1456
0.055661,1488
0.056661,1120
0.057661,1264
0.058661,1472
0.059661,1472
0.060661,1552
0.061660,960
0.062661,1280
0.063661,1824
0.064661,1920
0.065659,1152
0.066663,3024
0.067661,2080
0.068661,1792
0.069662,2256
0.070659,1600
0.071662,1328
0.072661,1584
0.073661,2480
0.074661,1792
0.075662,1792
0.076661,1632
0.077660,2064
0.078661,1408
0.079661,1888
0.080661,2960
0.081661,1552
0.082662,1504
0.083660,2784
0.084662,1248
0.085660,1232
0.086661,1488
0.087661,1648
0.088661,1872
0.089661,2800
0.090661,2272
0.091662,2000
0.092661,1488
0.093660,1504
0.094661,2032
0.095661,1104
0.096662,2112
0.097661,1552
0.098661,1616
0.099662,1808
0.100661,1936
0.101661,2432
0.102660,3520
0.103681,2496
0.104667,1200
0.105661,1840
0.106661,1552
0.107662,1424
0.108663,1760
0.109663,1520
0.110660,2096
0.111661,2384
0.112662,1536
0.113660,2720
0.114663,2192
0.115662,2512
0.116661,1568
0.117661,1792
0.118660,1408
0.119660,1952
0.120659,1840
0.121660,2080
0.122662,3584
0.123661,1584
0.124663,1328
0.125662,1456
0.126663,1920
0.127660,2224
0.128659,3024
0.129662,1616
0.130661,2304
0.131663,2464
0.132661,1456
0.133661,1936
0.134661,2000
0.135659,1728
0.136660,5057
0.137660,3552
0.138660,1952
0.139660,2608
0.140661,2320
0.141662,1968
0.142663,1456
0.143662,2096
0.144662,1568
0.145661,2880
0.146661,1792
0.147660,2000
0.148663,1536
0.149659,1840
0.150660,1984
0.151662,1584
0.152662,1888
0.153661,1520
0.154661,2528
0.155662,2336
0.156659,1552
0.157664,1280
0.158662,1184
0.159663,1024
0.160662,1232
0.161662,2096
0.162662,1760
0.163658,2512
0.164661,1200
0.165659,3360
0.166662,1088
0.167682,1664
0.168667,1856
0.169662,1552
0.170659,944
0.171661,1632
0.172660,2448
0.173661,1232
0.174663,2016
0.175659,1552
0.176663,1696
0.177661,2816
0.178661,2256
0.179661,2768
0.180660,1360
0.181661,2912
0.182662,1024
0.183662,1616
0.184661,1488
0.185662,2256
0.186661,2736
0.187663,2080
0.188661,1584
0.189663,1040
0.190662,2176
0.191661,1856
0.192660,1936
0.193662,1616
0.194661,2992
0.195660,1920
0.196662,2224
0.197661,2400
0.198661,1248
0.199662,1216
0.200660,1360
0.201661,2240
0.202658,2016
0.203660,2576
0.322473,1472
0.323116,1504
0.323521,2192
0.323907,1056
0.324284,3824
0.324729,1568
0.325099,1792
0.325473,1440
0.325848,1152
0.326236,1968
0.326612,1952
0.326990,1712
0.327365,3408
0.327742,1728
0.328661,1344
0.329661,2208
0.330663,1776
0.331662,1920
0.332659,2336
0.333661,1744
0.334661,2448
0.335661,2320
0.336662,2640
0.337661,2208
0.338661,1712
0.339663,1664
0.340663,1424
0.341661,1936
0.342661,2592
0.343662,1360
0.344661,2576
0.345660,1504
0.346661,3680
0.347660,1984
0.348663,3248
0.349661,2704
0.350661,1952
0.351662,1072
0.352661,1808
0.353661,2144
0.354661,2432
0.355661,1856
0.356660,4657
0.357662,1168
0.358660,1520
0.359692,2432
0.360666,1440
0.361663,1424
0.362663,1856
0.363661,1760
0.364659,1600
0.365662,3968
0.366661,2240
0.367661,1792
0.368660,1744
0.369661,3632
0.370659,2944
0.371660,2912
0.372661,1376
0.373662,1792
0.374661,2192
0.375661,1536
0.376660,1856
0.377663,5057
0.378660,2656
0.379661,3072
0.380662,1840
0.381661,1792
0.382662,1264
0.383660,1824
0.384663,1856
0.385660,2624
0.386661,2848
0.387661,2640
0.388662,1248
0.389659,1920
0.390663,1600
0.391661,1504
0.392661,1472
0.393661,2688
0.394662,2048
0.395660,1216
0.396660,1680
0.397661,1312
0.398661,1600
0.399664,1808
0.400659,1312
0.401661,1360
0.402661,2576
0.403661,2816
0.404660,1696
0.405661,2768
0.406663,3648
0.407660,3104
0.408662,1296
0.409662,1824
0.410659,2352
0.411661,1856
0.412661,1840
0.413660,2128
0.414661,1600
0.415661,2912
0.416663,2144
0.417662,3168
0.418659,1840
0.419661,1600
0.420661,1920
0.421660,1808
0.422660,1968
0.423679,2000
0.424669,992
0.425661,1120
0.426662,2768
0.427662,2400
0.428661,1440
0.429659,1664
0.430663,1984
0.431661,1680
0.432659,2848
0.433659,2688
0.434660,2240
0.435659,1424
0.436663,2400
0.437659,2736
0.438661,2208
0.439663,2240
0.440661,1936
0.441659,2864
0.442661,3968
0.443662,1616
0.444661,1728
0.445663,3152
0.446661,2240
0.447663,1840
0.448662,1824
0.449662,2496
0.450661,1472
0.451661,2208
0.452663,3456
0.453661,1632
0.454661,2576
0.455660,1952
0.456661,1536
0.457663,2624
0.458663,1808
0.459662,1888
0.460663,2128
0.461661,2544
0.462662,848
0.463661,1600
0.464661,1760
0.465664,1824
0.466662,1584
0.467661,1664
0.468661,2240
0.469660,3248
0.470661,1632
0.471662,1968
0.472663,2192
0.473661,1728
0.474660,1840
0.475660,2128
0.476661,2224
0.477660,1984
0.478662,3088
0.479663,1584
0.480662,3072
0.481663,1680
0.482660,1968
0.483661,1872
0.484660,2576
0.485662,2016
0.486661,2304
0.487674,3632
0.488663,1456
0.489663,2448
0.490663,1696
0.491661,1424
0.492661,1664
0.493660,2752
0.494660,1792
0.495660,1312
0.496661,2080
0.497661,2128
0.498661,1568
0.499661,3552
0.500662,2272
0.501663,1968
0.502662,1984
0.503661,2304
0.504661,3040
0.505662,1168
0.506660,1824
0.507661,1232
0.508663,2624
0.509661,2256
0.510661,1952
0.511661,1232
0.512660,2864
0.513661,2944
0.669538,1488
0.670329,960
0.670889,2256
0.671424,1632
0.671952,1728
0.672542,1440
0.673072,1488
0.673601,1328
0.674131,1040
0.674679,1504
0.675207,1376
0.675739,2256
0.676270,784
0.676802,1440
0.677330,2688
0.677860,2016
0.678390,1712
0.678949,1696
0.679663,2192
0.680681,1712
0.681665,1200
0.682662,1712
0.683661,1344
0.684662,1728
0.685662,1680
0.686660,1984
0.687660,1664
0.688662,928
0.689663,2432
0.690661,1376
0.691663,2304
0.692663,3056
0.693660,2592
0.694661,1632
0.695661,1760
0.696662,3888
0.697662,1680
0.698660,2400
0.699663,2432
0.700661,1520
0.701660,2704
0.702663,1808
0.703658,1344
0.704662,4321
0.705660,2320
0.706663,3248
0.707661,1728
0.708662,2576
0.709661,2304
0.710661,2112
0.711662,3216
0.712660,2432
0.713663,2432
0.714660,1712
0.715661,2912
0.716661,1760
0.717661,2208
0.718660,2352
0.719663,3424
0.720663,1360
0.721663,2688
0.722661,2304
0.723661,1424
0.724661,1712
0.725662,2112
0.726661,1776
0.727661,3360
0.728660,1760
0.729661,1616
0.730663,2704
0.731661,1856
0.732661,1280
0.733661,1472
0.734661,1968
0.735662,3280
0.736661,1440
0.737662,1872
0.738660,1312
0.739660,1328
0.740661,1712
0.741662,1712
0.742662,1856
0.743677,1056
0.744668,1968
0.745663,896
0.746661,4048
0.747662,2768
0.748659,1776
0.749662,2560
0.750663,2320
0.751662,5057
0.752662,2848
0.753661,2992
0.754661,2768
0.755662,1264
0.756663,1792
0.757660,2176
0.758661,1632
0.759662,2464
0.760663,2128
0.761660,2080
0.762663,1760
0.763660,1296
0.764661,2320
0.765661,3456
0.766660,1680
0.767661,1984
0.768661,1680
0.769660,2896
0.770661,1776
0.771661,2144
0.772660,2400
0.773660,2752
0.774661,928
0.775661,2976
0.776660,2176
0.777658,1120
0.778661,2144
0.779659,1584
0.780660,1376
0.781661,2400
0.782662,2400
0.783662,1472
0.784662,1200
0.785661,3056
0.786662,1568
0.787661,992
0.788661,1504
0.789661,1696
0.790659,1824
0.791659,2272
0.792662,1888
0.793661,1808
0.794661,1856
0.795662,1728
0.796662,1504
0.797662,3104
0.798660,1216
0.799661,2336
0.800662,2560
0.801661,4753
0.802659,1408
0.803660,1840
0.804661,2896
0.805663,1600
0.806661,2656
0.807677,1696
0.808665,1408
0.809662,2064
0.810660,2016
0.811662,2048
0.812661,2528
0.813663,1984
0.814661,2000
0.815661,1824
0.816659,2064
0.817661,2064
0.818660,3408
0.819661,2704
0.820661,3296
0.821662,2320
0.822662,1968
0.823661,1824
0.824660,2416
0.825662,2304
0.826662,1920
0.827660,1312
0.828661,2624
0.829661,2464
0.830661,3168
0.831662,2384
0.832662,2816
0.833659,2384
0.834662,1280
0.835659,1904
0.836662,2688
0.837663,1360
0.838660,1600
0.839662,1200
0.840662,2432
0.841661,2048
0.842661,1568
0.843663,1712
0.844661,1712
0.845662,1552
0.846663,3248
0.847661,2048
0.848663,1456
0.849661,1232
0.850662,2336
0.851664,2272
0.852661,2512
0.853661,1984
0.854660,1392
0.855661,1856
0.856663,1776
0.857661,1536
0.858662,2576
0.859661,2928
0.860660,1728
1.019952,2496
1.020897,2208
1.021604,2464
1.022298,256
1.022981,2016
1.023731,1680
1.024409,2576
1.025092,1632
1.025771,2064
1.026470,1552
1.027153,1424
1.027837,2400
1.028515,2624
1.029199,1664
1.029882,2368
1.030569,3968
1.031258,1344
1.031970,1904
1.032659,1312
1.033344,2752
1.034033,784
1.034721,2144
1.035402,1792
1.036091,1712
1.036783,1664
1.037659,1712
1.038662,1728
1.039661,2144
1.040661,1632
1.041661,1584
1.042663,2192
1.043661,2064
1.044662,1680
1.045660,1536
1.046661,2688
1.047663,1776
1.048661,2080
1.049662,2592
1.050661,2784
1.051660,2480
1.052663,2000
1.053659,1968
1.054662,2144
1.055660,1728
1.056662,3008
1.057660,2400
1.058661,5185
1.059661,9458
1.060663,3600
1.061660,1120
1.062662,1552
1.063683,912
1.064665,2304
1.065660,1232
1.066661,2704
1.067660,2048
1.068663,2432
1.069663,2016
1.070661,4097
1.071662,2176
1.072663,3504
1.073660,1328
1.074659,1360
1.075660,1584
1.076661,2128
1.077660,2224
1.078661,1264
1.079660,2464
1.080661,3008
1.081661,3232
1.082662,2528
1.083661,1312
1.084661,2176
1.085663,1872
1.086660,1904
1.087662,2624
1.088661,2240
1.089660,1760
1.090659,2400
1.091659,1920
1.092662,2272
1.093662,2320
1.094661,2112
1.095661,3040
1.096661,2608
1.097661,1568
1.098661,1472
1.099661,1712
1.100661,1216
1.101662,2048
1.102662,2272
1.103661,2096
1.104660,1152
1.105662,1408
1.106663,4673
1.107661,1728
1.108663,1680
1.109659,1456
1.110662,1472
1.111660,2736
1.112659,2720
1.113661,3152
1.114660,2128
1.115661,3632
1.116661,1600
1.117663,2832
1.118659,1344
1.119661,1600
1.120662,3424
1.121662,1952
1.122662,3904
1.123661,1968
1.124664,2992
1.125661,2208
1.126663,1680
1.127677,2400
1.128661,2624
1.129662,1168
1.130659,3984
1.131661,1328
1.132662,1744
1.133659,2352
1.134662,2320
1.135661,4177
1.136662,2144
1.137661,2512
1.138663,2960
1.139662,1600
1.140661,2448
1.141662,1760
1.142663,2784
1.143661,1744
1.144661,2464
1.145659,3104
1.146663,3504
1.147661,1376
1.148660,1088
1.149659,1280
1.150660,1984
1.151661,1888
1.152662,2336
1.153663,2720
1.154663,2160
1.155660,1632
1.156661,1088
1.157661,1776
1.158659,1872
1.159661,1840
1.160661,1024
1.161660,1952
1.162661,1072
1.163661,1424
1.164661,1344
1.165662,1712
1.166659,2272
1.167661,1952
1.168662,2848
1.169663,3968
1.170661,1312
1.171660,2080
1.172662,1680
1.173661,1616
1.174662,1552
1.175660,3776
1.176662,1584
1.177660,2448
1.178663,1616
1.179664,1664
1.180662,1488
1.181659,1712
1.182662,1936
1.183662,1632
1.184660,1456
1.185662,4657
1.186663,2720
1.187661,1968
1.188660,1424
1.189663,2048
1.190660,3664
1.191675,1856
1.192664,2880
1.193661,1200
1.194663,1952
1.195661,1360
1.196661,1040
1.197661,1968
1.198661,1808
1.199661,1472
1.200661,2352
1.201660,2176
1.202660,3856
1.203662,1760
1.204660,1488
1.205660,1184
1.206661,1808
1.207660,2192
1.208660,3152
1.209661,1792
1.210661,1072
1.211663,2352
1.326307,1056
1.326818,2464
1.327089,2624
1.327332,2144
1.327568,2240
1.327836,1760
1.328077,1472
1.328312,1216
1.328556,976
1.328817,2128
1.329057,2864
1.329661,1968
1.330658,2016
1.331662,2896
1.332661,944
1.333660,1184
1.334661,1888
1.335659,2112
1.336661,1168
1.337662,1312
1.338661,816
1.339662,1104
1.340661,1440
1.341662,1328
1.342661,1104
1.343661,2080
1.344661,1104
1.345663,1424
1.346660,896
1.347662,3136
1.348661,2224
1.349663,1488
1.350660,2128
1.351661,2064
1.352662,2576
1.353659,1408
1.354661,1328
1.355663,2176
1.356661,1168
1.357662,2000
1.358662,2304
1.359663,976
1.360661,3296
1.361660,3248
1.362661,1056
1.363661,1120
1.364661,1232
1.365660,1408
1.366661,1984
1.367663,1056
1.368662,800
1.369662,2944
1.370662,784
1.371661,928
1.372662,944
1.373660,1344
1.374661,1984
1.375661,1008
1.376662,1952
1.377659,1920
1.378663,672
1.379661,1200
1.380662,2320
1.381661,1312
1.382662,1280
1.383721,1600
1.384671,3152
1.385661,2128
1.386663,3280
1.387663,1504
1.388662,1280
1.389661,272
1.390661,1424
1.391662,1936
1.392660,2336
1.393662,1056
1.394661,1072
1.395661,1360
1.396662,2000
1.397661,1152
1.398662,1280
1.399661,2048
1.400661,2304
1.401661,1760
1.402661,1024
1.403661,1376
1.404661,1760
1.405660,2240
1.406660,1712
1.407661,976
1.408660,2160
1.409660,992
1.410661,1520
1.411663,2384
1.412661,2832
1.413663,768
1.414660,592
1.415661,1376
1.416661,1936
1.417662,2752
1.418663,2240
1.419660,1184
1.420663,640
1.421663,848
1.422662,992
1.423661,1136
1.424663,2064
1.425661,1120
1.426661,1216
1.427661,1360
1.428661,752
1.429661,1072
1.430660,2864
1.431661,3968
1.432661,1984
1.433659,2992
1.434661,1616
1.435662,784
1.436660,1184
1.437661,1328
1.438661,1408
1.439660,2464
1.440663,1232
1.441663,1936
1.442661,1664
1.443661,1968
1.444661,3856
1.445661,1440
1.446662,1824
1.447713,1312
1.448671,1728
1.449664,2128
1.450661,2016
1.451663,1008
1.452661,1104
1.453661,848
1.454661,1536
1.455662,1744
1.456661,1424
1.457660,2656
1.458663,1872
1.459660,2448
1.460663,1360
1.461661,2720
1.462661,2208
1.463661,1664
1.464663,2496
1.465662,2848
1.466661,1632
1.467661,3552
1.468660,3856
1.469662,1600
1.470661,3696
1.471661,1840
1.472661,2752
1.473661,1456
1.474662,1824
1.475660,3584
1.476659,1104
1.477662,1104
1.478661,1344
1.479663,1552
1.480662,1520
1.481663,1056
1.482661,1152
1.483662,2144
1.484661,2256
1.485661,992
1.486661,1104
1.487661,1840
1.488662,1040
1.489659,2512
1.490662,2272
1.491661,2080
1.492659,3728
1.493663,1552
1.494662,1472
1.495661,1872
1.496661,1712
1.497661,1248
1.498661,1600
1.499663,4881
1.500663,4353
1.501661,1664
1.502662,2384
1.503661,3712
1.504663,1552
1.505661,1440
1.506661,1728
1.507663,1728
1.508660,1872
1.509661,1232
1.510661,1024
1.511705,736
1.512676,1200
1.513663,1472
1.514662,5521
1.515662,2512
1.516659,1200
1.517660,1360
1.672357,1344
1.673016,1648
1.673442,2368
1.673845,2512
1.674239,1168
1.674700,1232
1.675091,1104
1.675484,1472
1.675883,896
1.676295,720
1.676689,928
1.677083,1024
1.677483,976
1.677881,1040
1.678663,1488
1.679661,2224
1.680661,2160
1.681659,3200
1.682662,592
1.683661,1200
1.684662,3136
1.685660,5921
1.686661,1632
1.687663,1856
1.688660,1216
1.689661,2176
1.690660,1104
1.691661,2640
1.692661,1312
1.693662,992
1.694663,816
1.695660,848
1.696660,2112
1.697662,1968
1.698661,1360
1.699662,1504
1.700659,1184
1.701663,2608
1.702659,5073
1.703683,2624
1.704665,1456
1.705663,656
1.706662,1360
1.707660,816
1.708661,1184
1.709659,2992
1.710661,1968
1.711662,2192
1.712663,3072
1.713659,2592
1.714661,3392
1.715660,1536
1.716661,1312
1.717662,2688
1.718661,1696
1.719663,2176
1.720660,1952
1.721661,4177
1.722660,1888
1.723658,1360
1.724661,2832
1.725663,2464
1.726660,1168
1.727664,1680
1.728661,1168
1.729661,3072
1.730662,1408
1.731660,1440
1.732661,1072
1.733660,1952
1.734660,2320
1.735662,2480
1.736662,2944
1.737659,1712
1.738661,1936
1.739659,1984
1.740663,1456
1.741662,1664
1.742660,1056
1.743663,1616
1.744660,976
1.745661,1824
1.746659,2480
1.747663,2176
1.748660,1872
1.749662,2464
1.750661,1040
1.751661,1088
1.752662,1296
1.753661,1936
1.754660,1040
1.755661,1232
1.756661,1568
1.757662,3264
1.758661,2480
1.759663,1424
1.760661,912
1.761661,960
1.762661,1552
1.763661,2352
1.764662,3056
1.765660,1984
1.766661,1856
1.767679,1760
1.768665,2208
1.769664,2304
1.770662,1440
1.771663,2176
1.772662,1056
1.773661,2656
1.774661,1328
1.775660,1456
1.776661,1488
1.777659,2144
1.778663,1344
1.779659,1104
1.780661,3520
1.781663,1360
1.782661,1552
1.783661,2400
1.784662,1600
1.785661,1824
1.786661,1728
1.787660,1696
1.788663,2608
1.789663,2560
1.790661,1680
1.791661,1232
1.792662,1344
1.793661,1664
1.794661,2016
1.795662,1104
1.796661,1152
1.797661,1696
1.798661,1824
1.799663,2256
1.800660,960
1.801660,1024
1.802660,1472
1.803661,2848
1.804661,1680
1.805662,2064
1.806661,1024
1.807660,1680
1.808661,2480
1.809661,4705
1.810659,1440
1.811662,2064
1.812661,1040
1.813662,1488
1.814661,1568
1.815659,1632
1.816660,2336
1.817662,1712
1.818659,2064
1.819661,864
1.820662,944
1.821662,2080
1.822659,1344
1.823660,1440
1.824662,2848
1.825663,3536
1.826661,2288
1.827660,1136
1.828661,1184
1.829662,1408
1.830662,1280
1.831674,1616
1.832665,2256
1.833665,1344
1.834661,2384
1.835661,1744
1.836661,1680
1.837661,1824
1.838661,1312
1.839661,1552
1.840663,1712
1.841662,1440
1.842662,2496
1.843660,2496
1.844661,1712
1.845662,1632
1.846662,2112
1.847661,2512
1.848663,1312
1.849660,2064
1.850661,1504
1.851659,2384
1.852661,3168
1.853661,1440
1.854663,2176
1.855660,1408
1.856659,1024
1.857662,1040
1.858661,1200
1.859661,1408
1.860662,1408
1.861661,1552
1.862660,1536
1.863662,2288
2.015263,1440
2.016078,1632
2.016653,1792
2.017203,1360
2.017752,1200
2.018362,1616
2.018910,1232
2.019456,1616
2.020007,1808
2.020565,1552
2.021118,928
2.021666,864
2.022214,976
2.022766,800
2.023312,1536
2.023991,1216
2.024546,1728
2.025127,2096
2.025680,1504
2.026661,608
2.027659,1072
2.028662,768
2.029661,1568
2.030661,2432
2.031660,1360
2.032661,1248
2.033661,1456
2.034662,768
2.035661,2928
2.036661,928
2.037660,1248
2.038662,816
2.039663,1824
2.040662,1712
2.041663,1440
2.042661,1488
2.043662,1408
2.044662,1456
2.045661,1312
2.046661,832
2.047663,1344
2.048661,1664
2.049662,1248
2.050662,1072
2.051660,2112
2.052661,1728
2.053661,816
2.054663,2576
2.055663,1712
2.056662,1984
2.057661,3360
2.058661,1440
2.059660,1424
2.060662,1408
2.061660,1152
2.062661,1184
2.063661,1680
2.064661,2048
2.065660,1296
2.066660,1248
2.067663,1392
2.068662,3648
2.069662,1424
2.070662,3984
2.071662,2224
2.072660,1744
2.073663,928
2.074661,1936
2.075660,1056
2.076663,992
2.077663,1440
2.078661,1680
2.079660,1184
2.080661,1920
2.081661,2080
2.082661,1312
2.083660,1568
2.084661,1456
2.085663,1856
2.086661,1088
2.087679,1872
2.088666,1216
2.089665,1072
2.090662,1776
2.091663,1280
2.092662,1312
2.093662,1792
2.094663,1728
2.095662,1280
2.096660,1552
2.097662,1312
2.098661,1424
2.099661,1728
2.100663,1744
2.101659,1360
2.102660,1152
2.103662,1152
2.104662,1280
2.105662,1344
2.106661,1168
2.107661,1392
2.108661,1568
2.109661,1760
2.110663,704
2.111662,1984
2.112660,2384
2.113659,1104
2.114661,1568
2.115660,4913
2.116661,1632
2.117660,1440
2.118661,3600
2.119661,2128
2.120661,2528
2.121660,2000
2.122660,1504
2.123662,1792
2.124661,1520
2.125662,1920
2.126662,2176
2.127659,1536
2.128660,1456
2.129658,2048
2.130659,1648
2.131662,1536
2.132661,1200
2.133661,1312
2.134661,1584
2.135660,3680
2.136661,3376
2.137663,3232
2.138661,2432
2.139661,1488
2.140663,1488
2.141661,1216
2.142660,2896
2.143661,1440
2.144659,1312
2.145661,3296
2.146660,3488
2.147660,1328
2.148660,1312
2.149663,1120
2.150660,1104
2.151678,1376
2.152668,1072
2.153663,2192
2.154660,1088
2.155659,1296
2.156661,1744
2.157660,1584
2.158660,1168
2.159661,1312
2.160662,1312
2.161662,1280
2.162660,1072
2.163661,1488
2.164660,1920
2.165661,1360
2.166661,2048
2.167661,1040
2.168662,1664
2.169660,3280
2.170659,3168
2.171661,1888
2.172661,1424
2.173661,1632
2.174661,1312
2.175662,1552
2.176659,1488
2.177662,1424
2.178661,1920
2.179661,1312
2.180663,2512
2.181661,1072
2.182662,1248
2.183661,1248
2.184661,1712
2.185661,2336
2.186661,1840
2.187661,2720
2.188663,1504
2.189660,2288
2.190661,2096
2.191663,1872
2.192659,1504
2.193662,1456
2.194662,976
2.195660,2080
2.196662,2112
2.197661,1584
2.198661,2272
2.199661,1472
2.200663,1248
2.201660,1808
2.202660,3072
2.203659,1984
2.204662,2336
2.205661,1472
2.206662,2112
2.315972,1680
2.316924,1936
2.317651,1456
2.318358,1088
2.319068,2592
2.319849,3216
2.320552,1840
2.321257,1456
2.321962,944
2.322694,1568
2.323398,2496
2.324106,3072
2.324817,1696
2.325527,2544
2.326239,3152
2.326954,2848
2.327664,1488
2.328397,1808
2.329109,1408
2.329821,1120
2.330534,4737
2.331251,1712
2.331968,1952
2.332684,5025
2.333396,2448
2.334117,1328
2.334838,2512
2.335661,2304
2.336659,1408
2.337661,1376
2.338662,1984
2.339661,3168
2.340662,1344
2.341660,1216
2.342661,2880
2.343683,3776
2.344667,2704
2.345663,1744
2.346663,1312
2.347662,1424
2.348659,2624
2.349661,1632
2.350660,1968
2.351663,2112
2.352661,1888
2.353663,1680
2.354658,2048
2.355663,3264
2.356661,1424
2.357662,1872
2.358660,2144
2.359662,1392
2.360663,2112
2.361661,1168
2.362661,2000
2.363662,1088
2.364662,2544
2.365661,1168
2.366662,1184
2.367661,1904
2.368661,3632
2.369660,3568
2.370663,1216
2.371662,2576
2.372661,1056
2.373663,4064
2.374663,1376
2.375662,2720
2.376661,1744
2.377662,1696
2.378662,1360
2.379662,2112
2.380662,1888
2.381661,1488
2.382663,3760
2.383663,2080
2.384662,2464
2.385664,2016
2.386661,1920
2.387661,1888
2.388661,2224
2.389661,2224
2.390661,2016
2.391662,3024
2.392661,2448
2.393662,2960
2.394660,1632
2.395662,2528
2.396663,2720
2.397660,1824
2.398662,2128
2.399661,1360
2.400661,1520
2.401659,992
2.402660,2384
2.403662,2656
2.404661,1952
2.405662,1344
2.406661,1760
2.407677,2080
2.408667,1840
2.409664,2608
2.410661,1536
2.411663,1600
2.412662,1424
2.413659,1712
2.414660,1680
2.415661,2240
2.416661,1696
2.417660,2512
2.418662,1680
2.419661,1792
2.420660,2256
2.421662,1472
2.422660,1648
2.423663,1168
2.424662,1664
2.425662,2208
2.426662,1056
2.427661,1456
2.428660,1344
2.429663,1248
2.430660,2304
2.431659,1680
2.432660,1744
2.433662,3040
2.434661,1760
2.435661,1696
2.436663,1984
2.437662,2048
2.438660,1536
2.439662,1840
2.440661,2816
2.441662,3792
2.442661,1552
2.443659,1888
2.444661,1872
2.445661,1584
2.446662,2272
2.447661,1872
2.448661,1776
2.449661,1744
2.450662,1536
2.451662,2976
2.452661,2320
2.453661,1776
2.454662,1328
2.455662,1360
2.456660,2304
2.457661,3008
2.458660,2096
2.459661,2528
2.460659,1856
2.461660,2112
2.462662,1616
2.463660,1552
2.464661,2064
2.475296,1328
2.475531,1680
2.475745,2112
2.475949,2576
2.476155,2624
2.476360,1056
2.476569,1936
2.476786,1280
2.476994,1856
2.477208,1984
2.477660,1568
2.478661,2224
2.479663,2592
2.480660,1888
2.481662,2480
2.482662,1840
2.483660,2336
2.484661,2000
2.485661,1872
2.486660,1488
2.487659,1632
2.488662,2144
2.489659,2448
2.490661,1712
2.491662,1760
2.492661,2192
2.493661,1440
2.494659,2000
2.495659,1872
2.496661,1792
2.497661,1344
2.498662,2272
2.499659,2944
2.500661,1728
2.501660,2560
2.502660,1312
2.503662,1616
2.504661,1232
2.505661,1504
2.506661,1936
2.507662,1680
2.508661,2336
2.509662,1456
2.665089,1968
2.665617,2752
2.665943,896
2.666235,1856
2.666518,1200
2.666877,1040
2.667162,1232
2.667448,1248
2.667736,1856
2.668039,1280
2.668329,1744
2.668661,960
2.669660,1792
2.670663,992
2.671663,1392
2.672661,1744
2.673661,1584
2.674660,1072
2.675662,1680
2.676661,2624
2.677662,1584
2.678662,1440
2.679661,1168
2.680661,1888
2.681661,1680
2.682661,2176
2.683661,1904
2.684661,1936
2.685661,2320
2.686661,2448
2.687661,1632
2.688660,1744
2.689662,1712
2.690661,1600
2.691661,1616
2.692663,2480
2.693659,2224
2.694661,1200
2.695660,1888
2.696661,1456
2.697661,1808
2.698661,832
2.699661,1632
2.700663,2384
2.701661,1936
2.702661,3536
2.703661,3072
2.704661,720
2.705663,1760
2.706663,2240
2.707660,3040
2.708660,1792
2.709660,1648
2.710661,1712
2.711662,1200
2.712662,2128
2.713662,2208
2.714662,1968
2.715661,864
2.716660,3264
2.717662,1312
2.718659,1984
2.719661,4305
2.720663,2960
2.721663,3248
2.722661,2880
2.723660,3488
2.724661,3248
2.725663,1488
2.726663,2064
2.727678,1808
2.728668,1472
2.729663,2144
2.730663,1376
2.731661,1792
2.732663,2000
2.733662,2048
2.734663,1152
2.735661,3856
2.736659,2112
2.737662,1216
2.738661,2656
2.739661,2656
2.740661,1440
2.741660,1456
2.742659,2624
2.743663,1472
2.744662,1792
2.745661,1808
2.746661,1232
2.747662,1312
2.748663,3024
2.749660,1744
2.750660,1792
2.751661,1840
2.752661,2320
2.753660,1728
2.754660,1552
2.755662,2912
2.756660,2304
2.757660,2096
2.758660,3584
2.759659,1600
2.760660,1664
2.761659,1664
2.762661,3376
2.763660,2768
2.764661,944
2.765663,1264
2.766661,1744
2.767661,2048
2.768661,1504
2.769661,3152
2.770660,1792
2.771661,2464
2.772662,1536
2.773662,1744
2.774661,2080
2.775660,2416
2.776661,1808
2.777661,2256
2.778662,1472
2.779662,2576
2.780661,1616
2.781659,1312
2.782661,2448
2.783661,1920
2.784661,1504
2.785660,4353
2.786661,2512
2.787660,2368
2.788663,4257
2.789661,2400
2.790661,1408
2.791678,3088
2.792669,3088
2.793665,2064
2.794660,1216
2.795659,2272
2.796662,3856
2.797661,2496
2.798661,800
2.799659,2400
2.800660,3376
2.801661,3264
2.802663,3248
2.803661,3024
2.804661,3888
2.805662,1984
2.806662,1312
2.807661,1408
2.808662,1760
2.809663,3680
2.810661,1216
2.811663,1232
2.812661,1664
2.813661,3552
2.814662,896
2.815657,1504
2.816661,1344
2.817659,1584
2.818661,2736
2.819661,3664
2.820660,2928
2.821662,1552
2.822661,1664
2.823662,1552
2.824661,1616
2.825661,1840
2.826663,1568
2.827662,2480
2.828661,1520
2.829662,1232
2.830661,1248
2.831663,2240
2.832661,1872
2.833661,2320
2.834661,3392
2.835662,2528
2.836661,2720
2.837661,1968
2.838661,1904
2.839663,1968
2.840660,1872
2.841660,2592
2.842659,4497
2.843660,1200
2.844662,1072
2.845661,1856
2.846662,2656
2.847662,1440
2.848661,1744
2.849663,1344
2.850661,2144
2.851662,2528
2.852660,2544
2.853662,1680
2.854660,2320
2.855676,640
2.856667,1744
3.052798,2720
3.053473,4225
3.053947,1888
3.054392,1712
3.054840,2496
3.055343,784
3.055785,2688
3.056224,1280
3.056671,1168
3.057136,1872
3.057579,1312
3.058023,1680
3.058467,1664
3.058913,1968
3.059353,3216
3.059800,2128
3.060661,1888
3.061660,1696
3.062661,1584
3.063662,1664
3.064659,2512
3.065660,1664
3.066663,1312
3.067663,2096
3.068660,1824
3.069660,1440
3.070662,1584
3.071661,1824
3.072662,1936
3.073661,2096
3.074661,2080
3.075662,1360
3.076662,1360
3.077662,2720
3.078663,1584
3.079661,1952
3.080662,1568
3.081660,2064
3.082661,1808
3.083661,3600
3.084662,1600
3.085662,1584
3.086661,1920
3.087661,1696
3.088662,2848
3.089661,2480
3.090662,1968
3.091661,1728
3.092663,1760
3.093661,2608
3.094660,1856
3.095660,1184
3.096663,1936
3.097661,1408
3.098662,1648
3.099660,1488
3.100662,1504
3.101663,1232
3.102660,2144
3.103660,1696
3.104662,1056
3.105659,2304
3.106661,1760
3.107662,1824
3.108662,1920
3.109658,1328
3.110661,1552
3.111743,832
3.112667,1888
3.113660,4016
3.114659,2224
3.115661,1712
3.116661,2912
3.117661,1824
3.118661,2704
3.119661,3328
3.120661,2096
3.121663,2096
3.122662,2464
3.123662,2528
3.124660,1808
3.125662,4721
3.126661,1680
3.127661,1600
3.128661,1600
3.129661,1184
3.130663,1760
3.131661,1280
3.132660,2112
3.133662,3136
3.134663,1616
3.135661,5569
3.136662,2064
3.137661,1440
3.138661,1808
3.139660,1088
3.140661,848
3.141661,2512
3.142661,1712
3.143659,1360
3.144659,1536
3.145659,2272
3.146662,1776
3.147662,2080
3.148659,2096
3.149661,2320
3.150661,2304
3.151661,1296
3.152663,1680
3.153661,1568
3.154661,1728
3.155663,1456
3.156661,1200
3.157659,1344
3.158661,1392
3.159661,1424
3.160662,1312
3.161661,1488
3.162661,3344
3.163659,2496
3.164661,1360
3.165661,2000
3.166661,1856
3.167660,1584
3.168661,1616
3.169660,1712
3.170661,1248
3.171662,992
3.172661,1616
3.173661,1680
3.174661,1920
3.175709,1984
3.176676,1728
3.177666,1568
3.178663,1936
3.179661,2784
3.180662,2016
3.181659,1360
3.182662,2368
3.183661,2576
3.184661,2016
3.185661,1536
3.186660,1536
3.187660,2896
3.188661,1424
3.189661,2144
3.190661,2000
3.191662,1856
3.192659,2448
3.193661,2592
3.194662,1472
3.195661,1872
3.196662,1536
3.197661,1584
3.198661,1696
3.199661,3680
3.200661,1888
3.201661,1344
3.202663,1824
3.203663,2112
3.204661,1856
3.205662,1552
3.206661,1616
3.207660,1920
3.208659,1376
3.209663,2112
3.210663,2208
3.211661,2640
3.212661,1440
3.213661,1792
3.214660,2576
3.215663,2064
3.216661,1552
3.217662,1376
3.218660,1456
3.219662,992
3.220659,1600
3.221661,2256
3.222661,1872
3.223661,2528
3.224661,1792
3.225659,1456
3.226661,2416
3.227663,2064
3.228660,1824
3.229662,1600
3.230660,2112
3.231660,1648
3.232661,2368
3.233663,1296
3.234662,2208
3.235661,1072
3.236663,1440
3.237661,1120
3.238661,2704
3.239661,1696
3.240675,2128
3.241669,4689
3.242663,2480
3.243662,2192
3.350545,1744
3.351414,848
3.352054,2224
3.352660,3136
3.353262,2656
3.353921,2368
3.354512,3152
3.355105,2480
3.355698,2752
3.356309,1536
3.356906,768
3.357495,2448
3.358098,1472
3.358694,2272
3.359290,1744
3.359887,1872
3.360476,1040
3.361099,1376
3.361701,1408
3.362300,2528
3.362904,6145
3.363664,2944
3.364661,1888
3.365661,2544
3.366659,1936
3.367679,1200
3.368667,4161
3.369664,3216
3.370660,1216
3.371662,2704
3.372661,1920
3.373663,2720
3.374660,1552
3.375661,1680
3.376661,1664
3.377661,1840
3.378662,1232
3.379661,1360
3.380661,1808
3.381663,2352
3.382660,1424
3.383659,1424
3.384662,2496
3.385662,3344
3.386664,3152
3.387662,2240
3.388663,3408
3.389663,2320
3.390661,3808
3.391662,1792
3.392661,1392
3.393661,1680
3.394663,1664
3.395662,1616
3.396661,1984
3.397660,4193
3.398658,864
3.399663,3392
3.400661,2480
3.401661,1632
3.402660,4689
3.403659,3360
3.404659,1968
3.405662,1712
3.406663,1680
3.407660,1440
3.408660,2384
3.409662,2896
3.410661,1328
3.411662,1952
3.412660,1488
3.413661,1440
3.414661,1584
3.415660,1376
3.416661,2320
3.417661,2000
3.418662,7377
3.419660,4769
3.420661,3104
3.421661,1952
3.422660,2256
3.423661,3232
3.424663,1552
3.425661,1776
3.426663,1552
3.427663,2128
3.428661,3936
3.429661,1968
3.430661,1840
3.431675,2000
3.432668,3232
3.433663,1568
3.434663,4417
3.435662,3808
3.436661,1456
3.437661,1616
3.438662,1504
3.439663,1408
3.440663,1856
3.441660,1744
3.442661,1680
3.443662,1200
3.444662,2912
3.445661,1280
3.446661,1712
3.447662,2144
3.448660,1504
3.449661,2128
3.450663,2560
3.451660,5441
3.452661,2288
3.453662,2208
3.454662,1936
3.455660,1168
3.456661,2624
3.457661,2352
3.458661,1632
3.459659,1088
3.460661,1248
3.461660,1296
3.462661,2384
3.463664,1664
3.464661,1952
3.465662,1984
3.466659,1312
3.467662,2016
3.468664,2256
3.469661,1984
3.470659,2224
3.471661,2528
3.472661,3088
3.473661,1504
3.474659,2432
3.475661,2624
3.476663,1872
3.477662,1792
3.478661,1040
3.479661,2064
3.480659,1808
3.481661,1952
3.482661,2560
3.483661,1552
3.484660,2464
3.485660,2592
3.486661,2128
3.487662,3888
3.488661,3216
3.489662,1664
3.490661,3728
3.491662,2224
3.492662,1344
3.493662,1824
3.494662,2208
3.495676,1104
3.496667,992
3.497661,1536
3.498662,2336
3.499661,1840
3.500662,1664
3.501661,1552
3.502663,1984
3.503661,1408
3.504661,1104
3.505662,2112
3.506661,1872
3.507662,1072
3.508662,2704
3.509661,2272
3.510661,2096
3.511663,2432
3.512660,1840
3.513661,2000
3.514663,1456
3.515661,1552
3.516661,1824
3.517662,1440
3.518661,1360
3.519662,2608
3.520661,1696
3.521663,1712
3.522661,1408
3.523662,2096
3.524661,2064
3.525660,1920
3.526659,1616
3.527661,4673
3.528661,1568
3.529660,1696
3.530661,1840
3.531661,2688
3.532661,1488
3.533660,2768
3.534663,1984
3.535662,2256
3.536660,2736
3.537661,1696
3.538661,2064
3.539659,1776
3.540661,3328
3.541662,2480
3.698066,2320
3.699078,1344
3.699858,1152
3.700612,1232
3.701365,2000
3.702191,2848
3.702948,1312
3.703702,1408
3.704455,1232
3.705230,1200
3.705991,2128
3.706752,1504
3.707512,1968
3.708272,2016
3.709030,1360
3.709790,1456
3.710544,5553
3.711331,928
3.712092,1712
3.712855,960
3.713614,2080
3.714379,848
3.715142,2192
3.715914,1744
3.716680,1632
3.717442,2240
3.718208,2832
3.718977,2848
3.719744,1232
3.720512,2064
3.721286,864
3.722057,2384
3.722827,2448
3.723660,2704
3.724662,2128
3.725661,1312
3.726659,1632
3.727660,1712
3.728660,1328
3.729662,1568
3.730661,2064
3.731661,1936
3.732662,2400
3.733660,1584
3.734664,1616
3.735660,1312
3.736661,2592
3.737662,1680
3.738660,1728
3.739659,1856
3.740663,1840
3.741660,1600
3.742661,928
3.743662,2816
3.744662,1584
3.745661,1328
3.746659,3472
3.747663,2560
3.748663,1744
3.749661,2416
3.750663,3296
3.751682,2368
3.752668,2992
3.753661,1312
3.754662,1088
3.764932,1632
3.765156,2128
3.765365,1808
3.765574,1280
3.765781,1104
3.765989,1456
3.766195,2144
3.766403,2368
3.766621,1408
3.766835,1472
3.767662,1808
3.768660,1760
3.769662,2368
3.770663,3408
3.771661,2208
3.772661,2176
3.773662,1376
3.774661,1168
3.775662,2960
3.776663,1872
3.777661,1584
3.778663,2976
3.779659,1712
3.780663,1632
3.781659,1168
3.782659,2640
3.783662,1424
3.784661,1776
3.785663,2400
3.786661,1664
3.787660,1168
3.788661,1456
3.789661,1472
3.790661,1984
3.791661,1424
3.792663,1696
3.793661,1360
3.794662,1024
3.795661,1568
3.796663,1168
3.797661,1488
3.798661,1968
3.799660,1200
3.800662,1040
3.801664,1920
3.802660,2736
3.803661,2304
3.804660,1424
3.805661,1632
3.806661,3168
3.807661,1024
3.808661,1664
3.809661,1296
3.810662,1056
3.811662,992
3.812661,2400
3.813663,1792
3.814662,3072
3.815677,1200
3.816668,1248
3.817661,2528
3.818662,2832
3.819657,864
3.820661,976
3.821659,896
3.822661,1776
3.823659,1552
3.824660,272
3.825663,1184
3.826663,1728
3.827662,1072
3.828659,2112
3.829662,848
3.830659,1456
3.831661,1824
3.832660,5121
3.833661,880
3.834661,2160
3.835661,1152
3.836663,1664
3.837662,2080
3.838659,2000
3.839663,5393
3.840661,800
3.841662,1168
3.842661,496
3.843659,1696
3.844662,784
3.845661,4561
3.846662,6881
3.847660,1456
3.848663,3904
3.849661,1616
3.850661,1088
3.851662,1152
3.852661,1184
3.853659,1296
3.854660,448
3.855663,1056
3.856659,2192
3.857660,912
3.858662,1200
3.859661,848
3.860661,1520
3.861660,1072
3.862661,1056
3.863661,1456
3.864661,1088
3.865661,1872
3.866663,4209
3.867663,1872
3.868662,1184
3.869660,2704
3.870660,1408
3.871661,1984
3.872660,1744
3.873663,1200
3.874661,2320
3.875661,1008
3.876661,1824
3.877662,1936
3.878662,1312
3.879676,2480
3.880669,2448
3.881666,2768
3.882663,816
3.883661,1120
3.884663,1360
3.885659,1856
3.886661,1872
3.887660,1728
3.888661,1728
3.889660,1360
3.890663,1680
3.891660,1440
4.042849,2048
4.043442,1744
4.043828,1872
4.044170,1584
4.044504,1696
4.044920,2064
4.045256,2448
4.045593,1376
4.045934,1936
4.046286,3840
4.046626,3264
4.046968,2208
4.047660,2368
4.048662,2512
4.049659,1712
4.050661,1696
4.051661,3552
4.052661,1616
4.053659,1504
4.054663,960
4.055662,992
4.056661,2864
4.057661,2176
4.058661,1872
4.059661,2048
4.060660,1536
4.061662,1296
4.062664,3104
4.063660,2080
4.064662,2048
4.065661,2240
4.066662,1536
4.067662,2960
4.068661,1680
4.069661,3728
4.070661,1152
4.071682,2432
4.072665,1888
4.073663,1632
4.074660,1616
4.075662,1616
4.076663,2736
4.077661,2944
4.078661,976
4.079661,1184
4.080660,3600
4.081661,2256
4.082662,1360
4.083661,1424
4.084661,1472
4.085662,1664
4.086660,944
4.087661,1792
4.088661,1392
4.089661,1424
4.090661,1792
4.091662,1408
4.092660,1312
4.093661,1440
4.094661,2912
4.095663,960
4.096661,1568
4.097661,1600
4.098661,1344
4.099660,2848
4.100663,1296
4.101661,1824
4.102659,1328
4.103663,848
4.104662,1168
4.105661,3792
4.106660,3488
4.107661,1872
4.108658,1456
4.109659,2272
4.110661,688
4.111662,1856
4.112660,2560
4.113660,1424
4.114662,1024
4.115661,1920
4.116663,2080
4.117661,2432
4.118663,3232
4.119664,1920
4.120660,1504
4.121664,896
4.122662,1248
4.123661,1488
4.124661,2272
4.125661,2736
4.126661,1440
4.127661,1408
4.128661,1728
4.129663,1936
4.130662,1584
4.131661,1808
4.132663,2016
4.133661,992
4.134662,2528
4.135675,3936
4.136665,1920
4.137663,3760
4.138662,1040
4.139662,960
4.140662,1360
4.141662,2448
4.142662,1104
4.143662,1184
4.144662,7889
4.145662,2336
4.146661,896
4.147661,1232
4.148663,1280
4.149660,1184
4.150661,1616
4.151663,3904
4.152662,1296
4.153661,1088
4.154662,1296
4.155661,1296
4.156661,1664
4.157661,1296
4.158661,1792
4.159660,1280
4.160662,1248
4.161660,960
4.162661,2272
4.163661,1632
4.164662,1952
4.165661,1200
4.166661,1872
4.167662,1296
4.168659,1920
4.169661,2224
4.170661,1424
4.171661,1104
4.172662,2048
4.173661,2224
4.174662,2176
4.175659,1472
4.176661,912
4.177662,1456
4.178661,976
4.179661,1584
4.180664,1728
4.181661,2736
4.182661,1536
4.183661,1216
4.184660,1472
4.185661,2400
4.186664,2528
4.187661,1632
4.188663,1344
4.189662,1360
4.190660,1952
4.191662,2816
4.192662,2224
4.193662,1104
4.194661,2704
4.195661,1824
4.196659,2448
4.197663,1328
4.198662,2560
4.199680,1248
4.200672,1504
4.201661,1664
4.202662,1712
4.203662,1120
4.204661,1072
4.205662,896
4.206660,1040
4.207661,960
4.208662,2192
4.209662,1696
4.210663,1744
4.211663,1456
4.212661,1360
4.213662,1232
4.214662,1872
4.215662,1952
4.216663,2112
4.217662,1328
4.218662,2320
4.219661,1536
4.220662,1152
4.221660,1600
4.222662,2720
4.223662,2256
4.224662,1376
4.225662,1088
4.226662,2384
4.227661,2528
4.228663,1632
4.229661,1696
4.230660,1936
4.231660,2080
4.232660,1856
4.233662,1472
4.234661,2208
4.345508,1376
4.346260,3968
4.346788,1328
4.347287,944
4.347783,3296
4.348338,3408
4.348834,1616
4.349326,3344
4.349815,1280
4.350319,1200
4.350816,1952
4.351303,1872
4.351800,1232
4.352291,1600
4.352789,1600
4.353284,2256
4.353784,1408
4.354658,1744
4.355660,1632
4.356662,1248
4.357662,704
4.358661,2944
4.359661,1952
4.360661,1184
4.361660,1216
4.362660,2864
4.363660,1888
4.364662,1104
4.365660,1376
4.366662,1728
4.367663,1472
4.368661,1744
4.369663,2096
4.370663,3168
4.371661,2688
4.372663,960
4.373661,1120
4.374662,1280
4.375662,1216
4.376660,1568
4.377663,1520
4.378660,1312
4.379661,1104
4.380661,1456
4.381661,1072
4.382661,1888
4.383662,992
4.384661,2832
4.385661,3152
4.386662,1344
4.387664,1200
4.388662,1824
4.389663,3584
4.390660,1600
4.391687,1824
4.392664,1200
4.393659,1680
4.394661,1568
4.395661,2688
4.396660,1856
4.397661,1952
4.398661,1120
4.399662,1504
4.400661,1248
4.401661,2080
4.402661,1584
4.403662,1152
4.404661,1088
4.405661,2640
4.406663,1728
4.407661,1760
4.408661,1328
4.409661,1920
4.410661,3344
4.411662,1120
4.412659,768
4.413660,1024
4.414662,1856
4.415659,1888
4.416663,1488
4.417659,1408
4.418661,1936
4.419661,2448
4.420659,2080
4.421661,1792
4.422659,1984
4.423660,1248
4.424661,2464
4.425661,1456
4.426660,1344
4.427661,1472
4.428659,2496
4.429661,1872
4.430660,1376
4.431661,2368
4.432661,2352
4.433663,1632
4.434658,1744
4.435663,2096
4.436662,944
4.437660,2048
4.438662,1296
4.439659,1664
4.440663,1280
4.441661,1536
4.442662,1760
4.443662,3280
4.444660,1264
4.445661,1456
4.446661,1520
4.447661,2112
4.448661,1440
4.449662,1104
4.450661,1008
4.451661,3408
4.452663,960
4.453663,2768
4.454660,1648
4.455679,2112
4.456669,2096
4.457665,1872
4.458658,1584
4.459661,1920
4.460660,1296
4.461661,1888
4.462659,2112
4.463662,2096
4.464661,2128
4.465661,768
4.466661,1376
4.467661,3264
4.468661,2816
4.469660,1984
4.470661,7057
4.471659,1696
4.472662,2096
4.473660,3152
4.474662,1104
4.475660,1632
4.476659,2064
4.477663,1952
4.478661,1664
4.479663,1696
4.480660,1552
4.481663,1632
4.482661,1600
4.483661,2384
4.484663,1536
4.485662,1536
4.486659,1408
4.487662,816
4.488659,1232
4.489661,1728
4.490663,1280
4.491662,1120
4.492661,1584
4.493663,3728
4.494660,3488
4.495660,2240
4.496659,2768
4.497662,1216
4.498661,3920
4.499658,1072
4.500662,1152
4.501661,976
4.502660,1440
4.503661,1760
4.504663,1584
4.505661,2512
4.506662,5441
4.507661,1600
4.508661,1632
4.509661,1232
4.510660,1888
4.511662,1552
4.512661,1536
4.513660,1088
4.514662,976
4.515661,2272
4.516662,3104
4.517661,4529
4.518661,1104
4.519683,2272
4.520664,1008
4.521661,2144
4.522660,1632
4.523662,2768
4.524660,1200
4.525662,1072
4.526659,4753
4.527661,1056
4.528663,1232
4.529660,1808
4.530660,1712
4.531662,896
4.532662,1072
4.533659,1568
4.534663,3424
4.535661,3520
4.536661,1680
4.692683,1824
4.693576,992
4.694264,1168
4.694921,1808
4.695567,1632
4.696278,864
4.696925,1664
4.697566,1120
4.698216,1952
4.698884,864
4.699526,1232
4.700175,2736
4.700828,2256
4.701470,2400
4.702120,1424
4.702770,2080
4.703418,768
4.704093,1696
4.704743,1120
4.705388,1712
4.706044,1072
4.706696,2592
4.707347,2816
4.708003,2144
4.708663,1344
4.709662,1664
4.710661,3360
4.711660,3472
4.712684,3328
4.713667,1024
4.714662,640
4.715659,2336
4.716662,1440
4.717662,2496
4.718661,1536
4.719663,1808
4.720662,1472
4.721663,1488
4.722661,2464
4.723661,1632
4.724660,1168
4.725660,1968
4.726661,1584
4.727662,1920
4.728662,2000
4.729661,2528
4.730661,976
4.731661,2656
4.732661,1744
4.733663,944
4.734661,2448
4.735663,1936
4.736661,1696
4.737662,2096
4.738659,1024
4.739662,1936
4.740662,1360
4.741661,4048
4.742660,2848
4.743659,2768
4.744662,1840
4.745660,2176
4.746664,1968
4.747660,1056
4.748661,2240
4.749663,2656
4.750660,1648
4.751660,3728
4.752660,1200
4.753661,1872
4.754660,2160
4.755660,1104
4.756663,976
4.757661,3040
4.758662,2016
4.759662,1456
4.760661,1200
4.761661,3296
4.762663,2608
4.763661,1248
4.764660,1088
4.765659,1072
4.766663,2208
4.767660,2336
4.768663,1168
4.769661,3552
4.770661,3488
4.771663,832
4.772661,1552
4.773661,1536
4.774663,1680
4.775680,2768
4.776668,1120
4.777662,1760
4.778660,2176
4.779662,2240
4.780661,1584
4.781660,2800
4.782662,1296
4.783662,1120
4.784660,3760
4.785661,6033
4.786661,416
4.787659,1600
4.788662,1744
4.789660,1280
4.790659,1664
4.791661,1440
4.792661,1648
4.793661,2224
4.794661,1248
4.795661,1408
4.796662,768
4.797659,1616
4.798661,2432
4.799659,1808
4.800663,1456
4.801659,2848
4.802663,1360
4.803660,1536
4.804658,2896
4.805661,1120
4.806661,1200
4.807661,1872
4.808663,4193
4.809662,2320
4.810663,816
4.811660,1744
4.812663,1584
4.813662,928
4.814661,896
4.815662,1632
4.816660,1696
4.817662,3984
4.818663,992
4.819661,1488
4.820660,1488
4.821664,2816
4.822661,1120
4.823662,1472
4.824662,1440
4.825663,1792
4.826660,1776
4.827661,1824
4.828661,1392
4.829661,1824
4.830663,1872
4.831659,1168
4.832661,640
4.833661,1680
4.834663,2336
4.835662,1680
4.836661,1216
4.837661,1152
4.838659,1280
4.839674,1696
4.840666,1104
4.841663,1856
4.842661,1536
4.843661,1824
4.844661,2336
4.845662,1840
4.846661,1408
4.847659,2304
4.848661,4561
4.849662,1216
4.850659,3424
4.851661,1712
4.852662,3280
4.853661,1296
4.854660,752
4.855661,1040
4.856660,592
4.857661,1888
4.858661,1568
4.859660,1696
4.860661,2352
4.861661,2336
4.862661,1440
4.863662,736
4.864661,944
4.865661,1616
4.866661,1408
4.867663,2000
4.868659,1232
4.869661,1072
4.870661,1456
4.871661,2448
4.872661,1408
4.873660,2208
4.874663,2080
4.875660,1840
4.876662,4289
4.877662,1360
4.878661,1824
4.879662,1264
4.880660,2560
4.881663,1632
4.882662,1968
4.883661,1552
5.032376,608
5.034439,320
5.035416,1536
5.036252,1424
5.037068,1712
5.037951,3248
5.038759,1200
5.039564,1120
5.040376,3872
5.041203,3760
5.042014,2176
5.042828,1504
5.043640,1488
5.044450,928
5.045263,2864
5.046077,2096
5.053415,2064
5.053661,1888
5.053870,1120
5.054079,1424
5.054287,1696
5.054497,1104
5.054712,992
5.054924,1168
5.055138,1232
5.055351,1824
5.055661,1216
5.056661,2336
5.057661,2288
5.058661,992
5.059659,2224
5.060662,1168
5.061660,2048
5.062661,2560
5.063661,1840
5.064660,896
5.065663,1136
5.066661,3232
5.067662,1200
5.068661,2224
5.069662,1424
5.070664,1744
5.071663,1312
5.072663,3104
5.073663,5985
5.074661,2304
5.075661,2352
5.076662,2080
5.077663,1264
5.078661,1472
5.079662,656
5.080661,1232
5.081661,1776
5.082662,3760
5.083662,3008
5.084662,2368
5.085663,1888
5.086660,1680
5.087661,2336
5.088661,1456
5.089660,1328
5.090662,3072
5.091661,2464
5.092662,1888
5.093660,4241
5.094664,1920
5.095686,1744
5.096665,1632
5.097662,2048
5.098661,1904
5.099662,2048
5.100661,1824
5.101661,1312
5.102660,1808
5.103662,1664
5.104660,736
5.105661,1088
5.106661,1280
5.107660,2144
5.108663,1280
5.109661,2224
5.110662,1664
5.111661,1280
5.112661,944
5.113661,1552
5.114662,2144
5.115662,1808
5.116661,608
5.117662,3216
5.118661,2800
5.119659,1696
5.120662,1440
5.121663,2240
5.122661,1296
5.123662,1808
5.124661,2352
5.125662,1248
5.126660,1568
5.127664,1344
5.128660,2352
5.129661,2784
5.130663,1024
5.131663,1328
5.132660,1920
5.133662,4577
5.134663,2080
5.135660,2944
5.136659,3728
5.137662,1072
5.138661,1472
5.139660,1936
5.140662,1568
5.141661,960
5.142661,2976
5.143660,1360
5.144662,1712
5.145661,1968
5.146661,3136
5.147661,1184
5.148662,1232
5.149662,1872
5.150661,2240
5.151660,1504
5.152661,2016
5.153661,1616
5.154661,1200
5.155662,1072
5.156661,912
5.157661,1456
5.158660,1152
5.159679,1728
5.160667,1360
5.161664,1280
5.162662,1616
5.163663,2416
5.164661,1200
5.165661,1872
5.166662,1088
5.167663,720
5.168662,1344
5.169660,2112
5.170660,1280
5.171661,1504
5.172661,1040
5.173659,1184
5.174663,1200
5.175663,1280
5.176661,1760
5.177660,1152
5.178661,2736
5.179660,2144
5.180662,1776
5.181661,2048
5.182661,1072
5.183662,1232
5.184660,2304
5.185661,2720
5.186660,1584
5.187660,1936
5.188662,1392
5.189660,1744
5.190664,1968
5.191661,1488
5.192662,1680
5.193659,2128
5.194662,1216
5.195661,1760
5.196662,3520
5.197661,4129
5.198661,2432
5.199660,1936
5.200662,1264
5.201659,1760
5.202661,1200
5.203662,2560
5.204663,1680
5.205661,1888
5.206662,1280
5.207662,1600
5.208662,1200
5.209660,2400
5.210663,2064
5.211664,1600
5.212659,1872
5.213660,2096
5.214662,1536
5.215661,1424
5.216660,2080
5.217662,2848
5.218661,2064
5.219659,1888
5.220662,1184
5.221663,1456
5.222662,1200
5.223678,2496
5.224671,976
5.225664,1664
5.226662,1616
5.227661,1840
5.228660,1600
5.342703,3504
5.343308,5825
5.343711,3904
5.344088,1984
5.344456,2128
5.344895,1408
5.345263,944
5.345633,1936
5.345996,1664
5.346380,2064
5.346746,1696
5.347110,1632
5.347477,1152
5.347851,1744
5.348662,1872
5.349661,1696
5.350661,2736
5.351685,2704
5.352668,912
5.353662,2048
5.354661,2336
5.355661,2672
5.356662,1024
5.357661,1440
5.358661,1232
5.359663,2944
5.360660,2576
5.361661,1504
5.362661,1280
5.363660,1616
5.364663,1408
5.365662,1904
5.366663,1488
5.367662,2128
5.368659,1840
5.369661,864
5.370660,2688
5.371661,5489
5.372663,2048
5.373661,2720
5.374663,1488
5.375660,2320
5.376660,1808
5.377662,1488
5.378662,2208
5.379662,2096
5.380660,1968
5.381663,2384
5.382662,1792
5.383662,1168
5.384661,4209
5.385662,1472
5.386662,1264
5.387662,1584
5.388660,2576
5.389661,2464
5.390660,1200
5.391661,4064
5.392660,2608
5.393659,1296
5.394661,3488
5.395661,1296
5.396661,2368
5.397659,2512
5.398661,2000
5.399661,2112
5.400663,1696
5.401662,1776
5.402662,1536
5.403663,2176
5.404662,1504
5.405660,2144
5.406662,1408
5.407662,1936
5.408663,1104
5.409663,2352
5.410660,2880
5.411661,1984
5.412661,1552
5.413662,2816
5.414661,1968
5.415679,2000
5.416671,1424
5.417662,2992
5.418662,1312
5.419663,1680
5.420661,1248
5.421660,2112
5.422661,1216
5.423661,1888
5.424661,1072
5.425661,1712
5.426662,1312
5.427661,2576
5.428658,2688
5.429661,1536
5.430661,2112
5.431660,2576
5.432663,1456
5.433662,976
5.434661,5217
5.435662,1472
5.436662,1376
5.437661,1152
5.438661,1168
5.439659,3104
5.440661,1424
5.441661,960
5.442661,944
5.443660,2224
5.444661,1600
5.445662,1792
5.446662,3616
5.447661,1056
5.448662,1728
5.449661,1248
5.450663,1200
5.451661,1792
5.452661,1328
5.453661,2544
5.454661,1168
5.455661,2288
5.456661,1664
5.457661,2096
5.458662,2608
5.459661,2576
5.460661,2736
5.461661,1584
5.462661,1248
5.463661,1392
5.464660,2160
5.465663,1456
5.466661,1504
5.467661,2880
5.468659,2400
5.469662,2720
5.470660,1744
5.471661,2896
5.472661,3712
5.473662,1360
5.474661,2576
5.475662,2432
5.476662,1936
5.477661,1504
5.478659,1344
5.479677,1792
5.480668,1312
5.481661,1776
5.482661,2000
5.483662,2496
5.484661,2256
5.485661,1600
5.486662,1920
5.487661,2896
5.488661,1888
5.489662,1488
5.490659,2736
5.491660,1856
5.492662,1632
5.493662,2832
5.494660,1344
5.495661,1280
5.496658,1664
5.497660,1808
5.498659,1520
5.499663,1968
5.500661,2240
5.501663,1840
5.502661,1120
5.503663,3056
5.504658,1440
5.505662,3872
5.506660,4193
5.507660,2096
5.508662,5249
5.509661,1312
5.510661,1424
5.511662,2384
5.512661,1952
5.513662,1664
5.514663,2112
5.515662,1424
5.516663,2192
5.517661,1968
5.518662,2656
5.519661,1760
5.520661,3120
5.521663,1840
5.522659,1696
5.523661,2000
5.524661,944
5.525661,1808
5.526663,2352
5.527661,4785
5.528662,2224
5.529662,2080
5.530662,2192
5.531660,3904
5.532661,1440
5.533662,2224
5.694730,3152
5.695498,3376
5.696066,3264
5.696597,3040
5.697119,2384
5.697705,2480
5.698221,2560
5.698742,2560
5.699260,2896
5.699803,2640
5.700322,1264
5.700844,3872
5.701363,4673
5.701894,2960
5.702414,3584
5.702944,2752
5.703467,2912
5.704016,3632
5.704661,4689
5.705661,4177
5.706662,3008
5.707661,3360
5.708661,2816
5.709661,3008
5.710661,5921
5.711662,3264
5.712661,2208
5.713662,2880
5.714663,2688
5.715661,3872
5.716662,3392
5.717662,2400
5.718661,2768
5.719661,2528
5.720663,3376
5.721661,3552
5.722661,3552
5.723661,3200
5.724661,7041
5.725663,4801
5.726660,3856
5.727661,3072
5.728661,3056
5.729663,4145
5.730660,3760
5.731662,2720
5.732662,2864
5.733661,2768
5.734663,2480
5.735681,3376
5.736666,3888
5.737663,2432
5.738661,3104
5.739661,3408
5.740661,4353
5.741661,3856
5.742659,3888
5.743662,3104
5.744661,2576
5.745659,2304
5.746661,2720
5.747662,2880
5.748661,2928
5.749661,2640
5.750661,2720
5.751662,3008
5.752662,3280
5.753659,3360
5.754662,3088
5.755661,4000
5.756660,3936
5.757661,3216
5.758662,3296
5.759661,3968
5.760661,3392
5.761661,2592
5.762663,3424
5.763663,2736
5.764659,3504
5.765661,6097
5.766659,3616
5.767660,2976
5.768660,2848
5.769662,2848
5.770660,4369
5.771660,3104
5.772663,3264
5.773659,3584
5.774662,2912
5.775661,2304
5.776661,2736
5.777662,4801
5.778661,5921
5.779662,2112
5.780659,3360
5.781661,3856
5.782662,3904
5.783662,4048
5.784659,3104
5.785661,2832
5.786659,3216
5.787661,2960
5.788662,2592
5.789662,3280
5.790661,3824
5.791662,3216
5.792661,3024
5.793661,3920
5.794659,3376
5.795662,2832
5.796663,2688
5.797660,3424
5.798662,3856
5.799680,3632
5.800664,4641
5.801663,3680
5.802662,3168
5.803660,3488
5.804660,3248
5.805662,6657
5.806661,2640
5.807661,2480
5.808661,2448
5.809659,2928
5.810661,3136
5.811661,2384
5.812663,2720
5.813661,6273
5.814661,5217
5.815660,3984
5.816664,2896
5.817662,3088
5.818658,2560
5.819659,2944
5.820663,2784
5.821661,3632
5.822660,3120
5.823663,2736
5.824658,2288
5.825661,3072
5.826662,4321
5.827661,3248
5.828660,3584
5.829660,3584
5.830661,2832
5.831659,3152
5.832661,3200
5.833659,2816
5.834661,3008
5.835661,3104
5.836663,3136
5.837660,2752
5.838661,2704
5.839661,2752
5.840661,3584
5.841660,4929
5.842662,2176
5.843661,2528
5.844661,3728
5.845663,3488
5.846661,3280
5.847661,2736
5.848661,3600
5.849661,4433
5.850661,3792
5.851661,4289
5.852662,3216
5.853659,3376
5.854663,2768
5.855661,2640
5.856661,3104
5.857659,2960
5.858661,2880
5.859661,1936
5.860661,3456
5.861660,3840
5.862660,3280
5.863680,3120
5.864670,2768
5.865663,3936
5.866661,5969
5.867663,2768
5.868661,3776
5.869661,3168
5.870661,4369
5.871662,3712
5.872662,4048
5.873660,3008
5.874661,2992
5.875662,3072
5.876661,5201
5.877662,3088
5.878660,4481
5.879661,3696
5.880661,4737
5.881662,3472
5.882661,2704
5.883662,2848
5.884661,3072
5.885662,5137
6.042831,7457
6.043749,6273
6.044444,2640
6.045125,4177
6.045799,14035
6.046537,8690
6.047214,4209
6.047892,2640
6.048564,5985
6.049258,2592
6.049934,2976
6.050606,3616
6.051280,3088
6.051963,2384
6.052643,3648
6.053316,2432
6.053991,3600
6.054690,3088
6.055536,3760
6.056229,3600
6.056915,3184
6.057595,2896
6.058278,3920
6.058961,4689
6.059663,3488
6.060663,7777
6.061661,4705
6.062661,5089
6.063662,7889
6.064663,2656
6.065661,4513
6.066661,3504
6.067661,2704
6.068662,4177
6.069662,4289
6.070661,6289
6.071662,3456
6.072661,6049
6.073662,3120
6.074660,3744
6.075663,6433
6.076659,4241
6.077661,6049
6.078661,3728
6.079661,15251
6.080661,7761
6.081661,3616
6.082662,9858
6.083661,5105
6.084660,2816
6.085661,4817
6.086663,3104
6.087662,4080
6.088661,2960
6.089661,6705
6.090661,3792
6.091661,2544
6.092660,10434
6.093661,5409
6.094659,13731
6.095660,10722
6.096663,24517
6.097659,13235
6.098661,3424
6.099659,6193
6.100662,17860
6.101661,6705
6.102661,3728
6.103660,2016
6.104662,3920
6.105662,4625
6.106662,7761
6.107662,3600
6.108661,4881
6.109661,5905
6.110661,2816
6.111663,9922
6.112662,2864
6.113661,3856
6.114662,7089
6.115660,7105
6.116661,5777
6.117660,8065
6.118662,14627
6.119676,6433
6.120663,11970
6.121663,17060
6.122662,13747
6.123659,3296
6.124664,7505
6.125661,13331
6.126659,16788
6.127662,12307
6.128660,6433
6.129662,2992
6.130661,3632
6.131659,3408
6.132660,4673
6.133663,3776
6.134663,3744
6.135661,21445
6.136661,9282
6.137660,10530
6.138662,10850
6.139663,2608
6.140661,5601
6.141662,4673
6.142662,10130
6.143659,33144
6.144660,19284
6.145662,4785
6.146661,6849
6.147661,2656
6.148663,32487
6.149662,24517
6.150662,9314
6.151663,8242
6.152661,8258
6.153661,2768
6.154661,8546
6.155662,27798
6.156662,9490
6.157661,3856
6.158661,3712
6.159659,23253
6.160661,19732
6.161661,8498
6.162662,30455
6.163660,11106
6.164661,3840
6.165661,4913
6.166661,3776
6.167663,11922
6.168663,3424
6.169662,3056
6.170661,3856
6.171661,5345
6.172660,4048
6.173660,11218
6.174660,10546
6.175662,6529
6.176662,3120
6.177663,15747
6.178662,7681
6.179663,24069
6.180660,24565
6.181661,6481
6.182662,7105
6.183679,28550
6.184666,5793
6.185661,19508
6.186661,4321
6.187663,5297
6.188659,25638
6.189659,23733
6.190662,4881
6.191663,6785
6.192661,41482
6.193660,58126
6.194663,12339
6.195664,3264
6.196664,6657
6.197662,4529
6.198663,3632
6.199662,25606
6.200660,14259
6.201662,5841
6.202661,20613
6.203661,3520
6.204661,11970
6.205660,5457
6.206659,11218
6.207659,4961
6.208661,15123
6.209662,3488
6.210662,24357
6.211661,13827
6.212659,2192
6.213660,4129
6.214659,2480
6.215661,4753
6.216661,9810
6.217663,5537
6.218661,8594
6.219661,10994
6.220660,5217
6.221659,14211
6.222661,7137
6.223662,3936
6.224661,12130
6.225661,23173
6.226659,3456
6.227661,5889
6.228664,9442
6.229663,21861
6.230661,26662
6.231659,8546
6.232662,41162
6.233661,31543
6.234661,21989
6.362491,21429
6.362996,28358
6.363260,31271
6.363496,40361
6.363732,37193
6.363993,26662
6.364222,9938
6.364456,10642
6.364701,18164
6.364950,21541
6.365184,6305
6.365659,32711
6.366663,26790
6.367660,35912
6.368663,55405
6.369659,15187
6.370661,14003
6.371661,14259
6.372662,54685
6.373661,40553
6.374660,31239
6.375793,47195
6.376672,28358
6.377663,10034
6.378663,65535
6.379660,8081
6.380663,35800
6.381661,34728
6.382661,4097
6.383661,7649
6.384662,33080
6.385659,44522
6.386663,65535
6.387660,30807
6.388661,42218
6.389660,65535
6.390661,62783
6.391661,53485
6.392661,9746
6.393663,16820
6.394663,34152
6.395661,28454
6.396661,65535
6.397662,10946
6.398661,6081
6.399661,50364
6.400660,58590
6.401661,3776
6.402661,5393
6.403662,9826
6.404664,4945
6.405659,35304
6.406661,15523
6.407662,23189
6.408662,44058
6.409663,59838
6.410660,46331
6.411660,61903
6.412661,64207
6.413662,28855
6.414661,65535
6.415661,41786
6.416661,21669
6.417661,12451
6.418662,8113
6.419661,6657
6.420663,16724
6.421662,3552
6.422661,40201
6.423661,14739
6.424659,12723
6.425660,51852
6.426661,14163
6.427659,4977
6.428659,26470
6.429662,34904
6.430662,40905
6.431661,23093
6.432662,41050
6.433662,65535
6.434661,26070
6.435662,4753
6.436661,42234
6.437663,8081
6.438662,4657
6.439677,30439
6.440665,59310
6.441662,65535
6.442662,49676
6.443660,63311
6.444661,3712
6.445661,26966
6.446661,5041
6.447662,58510
6.448663,16436
6.449661,25606
6.450661,7873
6.451660,21141
6.452663,22437
6.453662,14275
6.454660,16259
6.455661,13779
6.456661,36696
6.457663,6737
6.458659,6945
6.459661,7825
6.460661,52444
6.461661,46107
6.462661,44138
6.463661,65535
6.464661,44058
6.465661,65535
6.466661,65535
6.467662,53565
6.468661,8194
6.469659,8129
6.470661,3168
6.471662,12291
6.472659,21173
6.473662,47563
6.474663,10034
6.475662,4545
6.476662,25558
6.477659,59966
6.478663,7185
6.479661,60222
6.480662,12563
6.481663,7825
6.482661,6913
6.483661,4273
6.484661,6273
6.485663,26534
6.486662,42458
6.487660,24966
6.488663,26982
6.489659,12595
6.490661,4833
6.491661,25910
6.492661,65535
6.493659,5457
6.494661,3296
6.495661,40953
6.496659,24662
6.497662,63567
6.498659,58718
6.499660,40761
6.500663,4465
6.501660,65535
6.502663,61134
6.503678,65535
6.504664,63119
6.505663,30503
6.506662,4833
6.507662,65535
6.508661,57822
6.509662,42746
6.510662,37785
6.511660,6833
6.512662,3488
6.513661,3792
6.514661,65535
6.515660,64911
6.516662,5921
6.517661,4529
6.518663,9970
6.519661,14515
6.520661,2992
6.521661,3232
6.522662,16964
6.523661,23461
6.524663,27158
6.525661,41322
6.526661,25622
6.527661,56861
6.528660,59550
6.529661,56781
6.530661,65535
6.531660,26582
6.532662,36392
6.533661,9954
6.534662,24662
6.535659,7425
6.536661,18900
6.537661,41066
6.538661,15443
6.539659,19540
6.540661,13235
6.541664,65535
6.542659,65535
6.543662,31879
6.544661,58206
6.545661,65535
6.546661,27670
6.547661,15571
6.548661,42970
6.549662,28951
6.550662,3936
6.551661,26166
6.552663,24565
6.553661,34872
6.717594,49099
6.718254,39577
6.718677,38969
6.719067,9826
6.719452,23605
6.719914,40937
6.720297,50252
6.720688,48571
6.721076,47579
6.721478,40953
6.721867,26134
6.722257,32968
6.722644,49708
6.723032,52652
6.723661,32295
6.724661,39945
6.725661,21109
6.726663,13523
6.727661,42058
6.728663,47835
6.729663,65535
6.730662,9810
6.731662,3424
6.732661,8642
6.733661,20869
6.734661,65535
6.735662,12307
6.736661,13875
6.737661,7329
6.738661,4257
6.739661,20308
6.740661,38985
6.741660,16804
6.742661,65535
6.743659,31495
6.744662,65535
6.745661,65535
6.746661,12595
6.747659,14819
6.748662,10466
6.749660,4593
6.750662,14131
6.751663,3616
6.752662,24389
6.753660,45227
6.754662,24565
6.755661,11106
6.756661,21525
6.757661,49996
6.758661,50444
6.759688,4881
6.760672,9522
6.761662,60862
6.762660,30007
6.763661,45979
6.764661,25814
6.765661,22853
6.766662,4913
6.767661,20276
6.768660,32615
6.769661,15187
6.770663,18116
6.771662,33000
6.772660,10786
6.773659,9410
6.774661,14163
6.775660,65535
6.776663,65535
6.777663,31703
6.778661,55453
6.779662,20324
6.780659,6145
6.781659,18372
6.782661,15075
6.783663,11266
6.784661,27814
6.785659,3408
6.786661,4433
6.787660,19940
6.788661,65535
6.789659,46155
6.790661,12499
6.791661,7825
6.792663,20613
6.793663,9506
6.794661,65535
6.795660,54765
6.796663,62703
6.797662,65535
6.798663,9250
6.799662,33272
6.800661,65535
6.801659,57486
6.802660,23445
6.803660,2976
6.804662,21397
6.805662,65535
6.806661,45083
6.807662,9586
6.808661,52524
6.809660,25126
6.810662,22245
6.811662,16227
6.812660,35048
6.813661,11538
6.814662,38297
6.815662,28086
6.816661,17156
6.817660,33032
6.818663,16548
6.819661,4945
6.820662,8017
6.821662,56045
6.822662,27158
6.823677,32519
6.824670,65535
6.825668,16131
6.826663,55773
6.827660,29703
6.828664,38585
6.829661,33864
6.830662,65535
6.831661,55389
6.832660,7313
6.833662,48651
6.834661,41802
6.835660,23637
6.836662,31015
6.837659,48667
6.838661,33464
6.839661,25606
6.840662,17636
6.841661,22997
6.842659,4881
6.843661,57758
6.844661,45867
6.845661,26822
6.846662,6641
6.847660,27318
6.848663,41690
6.849663,61551
6.850660,65535
6.851660,3248
6.852664,12563
6.853661,10642
6.854662,28871
6.855661,18212
6.856662,50364
6.857659,20485
6.858661,20356
6.859661,10546
6.860661,44938
6.861661,55069
6.862661,46123
6.863661,9906
6.864660,30823
6.865661,22325
6.866660,8594
6.867661,46459
6.868661,20180
6.869661,8882
6.870662,57149
6.871661,57293
6.872661,29591
6.873661,65535
6.874662,65535
6.875661,65535
6.876662,3568
6.877662,46955
6.878660,65535
6.879662,11410
6.880661,21269
6.881664,11714
6.882661,13059
6.883661,16532
6.884661,51372
6.885661,14995
6.886662,22565
6.887680,11154
6.888670,60510
6.889665,20196
6.890666,65535
6.891661,50764
6.892659,21605
6.893661,3072
6.894662,3904
6.895662,16852
6.896662,7201
6.897661,57806
6.898663,11426
6.899662,26630
6.900659,4305
6.901662,14627
6.902660,12579
6.903663,2480
6.904661,4048
6.905661,2992
6.906660,10978
6.907663,65535
6.908662,20901
7.071755,4289
7.072553,27110
7.073140,32551
7.073690,25638
7.074233,4273
7.074840,12963
7.075378,8210
7.075924,13347
7.076464,37081
7.077029,48827
7.077568,59534
7.078112,47851
7.078655,13187
7.079198,14995
7.079902,62479
7.080461,41466
7.081012,6081
7.081579,26182
7.082123,5857
7.082668,33736
7.083661,11154
7.084660,29207
7.085661,3984
7.086661,47291
7.087661,12595
7.088661,28743
7.089661,65535
7.090660,8482
7.091663,53277
7.092662,17972
7.093662,57806
7.094661,10562
7.095660,53341
7.096661,49067
7.097662,33880
7.098661,8177
7.099661,26550
7.100661,4545
7.101661,46795
7.102663,4305
7.103661,18644
7.104660,30727
7.105662,9298
7.106662,45531
7.107661,5537
7.108661,5409
7.109661,23013
7.110662,16307
7.111661,26310
7.112661,12130
7.113662,7969
7.114662,24101
7.115661,21477
7.116661,32968
7.117663,33560
7.118661,6033
7.119662,9906
7.120663,40329
7.121663,65535
7.122660,65535
7.123663,9090
7.124661,23941
7.125660,65535
7.126662,50124
7.127661,65535
7.128661,46907
7.129662,55437
7.130662,17556
7.131661,26662
7.132659,65535
7.133661,45387
7.134661,22101
7.135662,36856
7.136662,50972
7.137661,54493
7.138659,12499
7.139660,56109
7.140661,17124
7.141662,26454
7.142663,15171
7.143675,16339
7.144664,6257
7.145664,4737
7.146664,28502
7.147663,8578
7.148663,39785
7.149662,53725
7.150661,65535
7.151661,25510
7.152660,34136
7.153661,49868
7.154661,8610
7.155663,20773
7.156659,21349
7.157661,57934
7.158660,26262
7.159661,7089
7.160659,65535
7.161661,33896
7.162662,65535
7.163660,54509
7.164662,65535
7.165661,16516
7.166663,31623
7.167662,19876
7.168660,46651
7.169659,35512
7.170661,7217
7.171661,30151
7.172661,24485
7.173662,35304
7.174660,40953
7.175663,13187
7.176663,37577
7.177661,65535
7.178660,45803
7.179662,53853
7.180661,59230
7.181661,41562
7.182661,47291
7.183663,6081
7.184662,9298
7.185663,2464
7.186662,7457
7.187661,65535
7.188661,11730
7.189660,52924
7.190660,35720
7.191661,40953
7.192660,29847
7.193660,26550
7.194661,18100
7.195661,39913
7.196661,44394
7.197659,19476
7.198661,57998
7.199662,46187
7.200661,4897
7.201663,19284
7.202660,64527
7.203661,58446
7.204662,65535
7.205661,11602
7.206660,4016
7.207674,41002
7.208667,31255
7.209665,28246
7.210663,37017
7.211663,29831
7.212662,7249
7.213659,4032
7.214663,9506
7.215663,56093
7.216661,65535
7.217661,65535
7.218662,40793
7.219662,65535
7.220661,30455
7.221662,35368
7.222663,30359
7.223662,15203
7.224662,36616
7.225662,3600
7.226660,28070
7.227661,19092
7.228663,22053
7.229661,5569
7.230661,7089
7.231661,3792
7.232661,32551
7.233659,12771
7.234661,5841
7.235662,45675
7.236660,3472
7.237660,5457
7.238664,18948
7.239661,49676
7.240663,65535
7.241661,21349
7.242663,59022
7.243663,23157
7.244662,8177
7.245662,28070
7.246662,7585
7.247662,5409
7.248663,4032
7.249660,36024
7.250662,2832
7.251662,17412
7.252660,31239
7.253661,18164
7.254663,4401
7.255661,35736
7.256661,2656
7.257663,5553
7.258662,3664
7.259662,5345
7.260663,21477
7.261661,15539
7.262661,4113
7.417678,33624
7.418619,6881
7.419347,34536
7.420051,65535
7.420750,65535
7.421521,5697
7.422226,60078
7.422926,65535
7.423628,43882
7.424346,4913
7.425054,11138
7.425757,43530
7.426460,63087
7.427168,60446
7.427875,65535
7.428576,65535
7.429287,12050
7.430018,59822
7.430725,65535
7.431433,42394
7.432143,20549
7.432853,43274
7.433558,24966
7.434274,28262
7.434989,15651
7.435701,3216
7.436411,6801
7.437127,4433
7.437841,4129
7.438660,15523
7.439660,46747
7.440660,12883
7.441661,41290
7.442661,34312
7.443663,30183
7.444660,8610
7.445662,44970
7.446660,65535
7.447663,65535
7.448661,36504
7.449663,60222
7.450661,18916
7.451662,38313
7.452661,43690
7.453659,30055
7.454661,9202
7.455661,16916
7.456661,3376
7.457661,23973
7.458661,35560
7.459663,22949
7.460664,24437
7.461658,11234
7.462661,65535
7.463682,20212
7.464663,36344
7.465663,46155
7.466663,45163
7.467660,63967
7.468661,9554
7.469663,44538
7.470660,65535
7.471661,19844
7.472659,42250
7.473661,5601
7.474661,27366
7.475660,35880
7.476661,29735
7.477663,53437
7.478661,14003
7.479662,28550
7.480660,24549
7.481663,8097
7.482663,18436
7.483659,51212
7.484663,9586
7.485661,27494
7.486661,39673
7.487660,3552
7.488660,65535
7.489662,65535
7.490659,17988
7.491662,5073
7.492662,7121
7.493661,21349
7.494661,5297
7.495661,21589
7.496661,26054
7.497661,18324
7.498659,19844
7.499663,6545
7.500661,3120
7.501660,15843
7.502662,56141
7.503660,49292
7.504662,65375
7.505662,34136
7.506661,57902
7.507662,8129
7.508661,51980
7.509661,26502
7.510660,33560
7.511661,11714
7.512657,39609
7.513663,49180
7.514662,12579
7.515660,3296
7.516660,9554
7.517661,5537
7.518658,5633
7.519662,21957
7.520661,65535
7.521661,36008
7.522662,38585
7.523662,50060
7.524662,58046
7.525660,65535
7.526661,34328
7.527676,7601
7.528666,31783
7.529665,28502
7.530660,65535
7.531662,25814
7.532661,54205
7.533661,12435
7.534660,28534
7.535661,3248
7.536660,6993
7.537663,12098
7.538661,24565
7.539662,53693
7.540662,5377
7.541663,53132
7.542659,20372
7.543662,10834
7.544662,9858
7.545661,33176
7.546661,9426
7.547660,3664
7.548662,32792
7.549661,9106
7.550659,39641
7.551661,65535
7.552661,8418
7.553661,12947
7.554662,3248
7.555662,22565
7.556660,15203
7.557659,33256
7.558661,8930
7.559661,3904
7.560660,10914
7.561661,11938
7.562660,37641
7.563661,17732
7.564661,12034
7.565660,6849
7.566659,4193
7.567661,5585
7.568661,37433
7.569660,4080
7.570661,57566
7.571661,65535
7.572662,57390
7.573661,14979
7.574660,21333
7.575661,3344
7.576662,33112
7.577663,65535
7.578660,60462
7.579661,30391
7.580661,65535
7.581661,51436
7.582662,8097
7.583662,19220
7.594340,39209
7.594577,22709
7.594797,5217
7.595011,14147
7.595221,23141
7.595430,24886
7.595646,21637
7.595856,16003
7.596066,13507
7.596276,11778
7.596663,4016
7.597661,4929
7.598663,12114
7.599661,12611
7.600661,11506
7.601661,17588
7.602660,6785
7.603661,11970
7.604661,38489
7.605661,47275
7.606659,3840
7.607662,3376
7.608661,18628
7.609659,3024
7.610663,65535
7.723429,65535
7.723980,24742
7.724282,6017
7.724569,12947
7.724857,19828
7.725201,19460
7.725487,27478
7.725770,43674
7.726048,45531
7.726344,39113
7.726628,32343
7.726908,23765
7.727660,9378
7.728663,27302
7.729661,3856
7.730662,11698
7.731661,37033
7.732660,14243
7.733661,65535
7.734661,25542
7.735660,5265
7.736663,36296
7.737660,4449
7.738661,7201
7.739661,27718
7.740659,4545
7.741663,33976
7.742662,65535
7.743663,60590
7.744661,65535
7.745662,52108
7.746662,16932
7.747661,30471
7.748661,58862
7.749662,16147
7.750661,58398
7.751663,42938
7.752660,20581
7.753663,30535
7.754662,8145
7.755662,61406
7.756660,37513
7.757664,4673
7.758660,25446
7.759661,40633
7.760661,47467
7.761660,27398
7.762661,44122
7.763661,8177
7.764661,47371
7.765663,42314
7.766661,17348
7.767662,38585
7.768661,19124
7.769661,6737
7.770659,22165
7.771662,30663
7.772662,6385
7.773661,6289
7.774662,20805
7.775660,45595
7.776661,25910
7.777662,39081
7.778661,62143
7.779661,13267
7.780663,42938
7.781661,8978
7.782660,35720
7.783681,15363
7.784668,29943
7.785661,6161
7.786661,27382
7.787663,3520
7.788663,20164
7.789660,31927
7.790662,35048
7.791661,4609
7.792661,31415
7.793661,5697
7.794662,59118
7.795663,6945
7.796662,28166
7.797661,31063
7.798661,25958
7.799663,5873
7.800661,18372
7.801662,7409
7.802659,29751
7.803663,53421
7.804660,32135
7.805663,50412
7.806661,17572
7.807663,22261
7.808662,15267
7.809660,15075
7.810661,34136
7.811661,30743
7.812662,20100
7.813662,20533
7.814662,9554
7.815663,14003
7.816661,3136
7.817661,4769
7.818662,35384
7.819661,8033
7.820663,11026
7.821660,21909
7.822662,23733
7.823663,49676
7.824662,65535
7.825661,29655
7.826662,13459
7.827660,44730
7.828661,36376
7.829659,45723
7.830661,31303
7.831660,4225
7.832662,17620
7.833661,64607
7.834661,34552
7.835661,4225
7.836663,2496
7.837661,21925
7.838662,65535
7.839660,38105
7.840659,17796
7.841660,24870
7.842662,26150
7.843661,5505
7.844664,2720
7.845661,32663
7.846663,5713
7.847678,5729
7.848666,65535
7.849663,65535
7.850660,65535
7.851660,65295
7.852661,15571
7.853661,43930
7.854661,65535
7.855661,45163
7.856663,23525
7.857661,42314
7.858660,16724
7.859661,34152
7.860662,8546
7.861661,21173
7.862662,54253
7.863659,65535
7.864662,44794
7.865661,65535
7.866661,55741
7.867661,15971
7.868661,20324
7.869663,5393
7.870662,5921
7.871658,12242
7.872663,4129
7.873661,3104
7.874662,3280
7.875661,20645
7.876661,24197
7.877660,19604
7.878661,21077
7.879663,27494
7.880661,49580
7.881661,36664
7.882661,37161
7.883660,59294
7.884661,65535
7.885660,7905
7.886662,47355
7.887660,37449
7.888662,3376
7.889662,4433
7.890661,22565
7.891661,8161
7.892663,17908
7.893662,11026
7.894662,44842
7.895663,25638
7.896659,4417
7.897662,5297
7.898661,11474
7.899662,11090
7.900662,39273
7.901660,20196
7.902660,65535
7.903660,33800
7.904661,56717
7.905661,6913
7.906659,20885
7.907662,18084
7.908663,3200
7.909662,35144
7.910662,26054
7.911680,21349
7.912665,38073
7.913661,22741
7.914663,28823
8.077530,8498
8.078239,6081
8.078716,11474
8.079157,17332
8.079591,22693
8.080090,10354
8.080523,9394
8.080964,28406
8.081400,21589
8.081855,7713
8.082288,3648
8.082726,5393
8.083161,11154
8.083594,26918
8.084032,39273
8.084659,40585
8.085662,10962
8.086662,19604
8.087663,3072
8.088663,17604
8.089662,3776
8.090660,6289
8.091662,4257
8.092661,33048
8.093661,22325
8.094662,36536
8.095661,41338
8.096661,52796
8.097661,17348
8.098661,45707
8.099661,19460
8.100660,43754
8.101662,19156
8.102661,3744
8.103726,2496
8.104665,2688
8.105661,4673
8.106662,65535
8.107663,18132
8.108662,16019
8.109661,4785
8.110661,7585
8.111663,19220
8.112661,65535
8.113663,51916
8.114661,33880
8.115662,13987
8.116662,10386
8.117662,20324
8.118662,6913
8.119660,49196
8.120662,38489
8.121661,23061
8.122663,65535
8.123661,25558
8.124663,12963
8.125662,3584
8.126661,53645
8.127662,17124
8.128661,33416
8.129659,10466
8.130662,30119
8.131661,13475
8.132663,11106
8.133661,65535
8.134662,8882
8.135661,23653
8.136657,16692
8.137661,58574
8.138663,65535
8.139661,26246
8.140661,11026
8.141661,4689
8.142660,17380
8.143660,65535
8.144663,7873
8.145661,9346
8.146662,6897
8.147659,24790
8.148663,48011
8.149662,6065
8.150663,4737
8.151661,5185
8.152661,34360
8.153661,44858
8.154661,6465
8.155662,4353
8.156663,20677
8.157662,28550
8.158661,23509
8.159663,45099
8.160661,19300
8.161661,21653
8.162660,10082
8.163662,5473
8.164663,4481
8.165663,46187
8.166661,50060
8.167732,45323
8.168669,25942
8.169662,65535
8.170664,50508
8.171662,17316
8.172661,43530
8.173662,18980
8.174661,7713
8.175662,28102
8.176660,8338
8.177661,37353
8.178660,16147
8.179660,26566
8.180660,65535
8.181662,19812
8.182662,65535
8.183660,64831
8.184663,5809
8.185659,5601
8.186661,12258
8.187662,29079
8.188660,65535
8.189662,48187
8.190660,5745
8.191659,18660
8.192662,41898
8.193659,55901
8.194661,42954
8.195660,17796
8.196662,52700
8.197661,62959
8.198659,12098
8.199660,9554
8.200662,20436
8.201661,21541
8.202661,16564
8.203661,25862
8.204662,52524
8.205659,7073
8.206661,32103
8.207662,3664
8.208661,17492
8.209663,4145
8.210661,8258
8.211660,10962
8.212662,65535
8.213660,65535
8.214661,46171
8.215660,65535
8.216660,65535
8.217661,16644
8.218660,65535
8.219661,17092
8.220661,4241
8.221661,60382
8.222663,26678
8.223661,48779
8.224661,5889
8.225663,22037
8.226661,4897
8.227664,4177
8.228660,4545
8.229661,38313
8.230663,17236
8.231662,36120
8.232675,22693
8.233666,7009
8.234663,17220
8.235661,2624
8.236663,9554
8.237660,4577
8.238661,6321
8.239662,34968
8.240661,23221
8.241661,36648
8.242661,40665
8.243664,3312
8.244661,28935
8.245661,51148
8.246664,32215
8.247663,27110
8.248661,11106
8.249661,42378
8.250661,61791
8.251663,56925
8.252661,19268
8.253662,3232
8.254662,14499
8.255661,16788
8.256662,35592
8.257662,9442
8.258661,4865
8.259659,3200
8.260661,4129
8.261661,16355
8.262661,20068
8.263663,25350
8.264660,33608
8.265661,12258
8.266661,40953
8.267663,56589
8.268660,6561
8.478115,4241
8.478967,17732
8.479588,17940
8.480185,13491
8.480776,9122
8.481428,39561
8.482018,42554
8.482601,30887
8.483192,34344
8.483798,29799
8.484387,13731
8.484976,16676
8.485564,62975
8.486152,65535
8.486743,61935
8.487332,31991
8.488085,29479
8.488717,5377
8.489313,31111
8.489910,31047
8.490661,10162
8.491660,14755
8.492662,9042
8.493662,7889
8.494660,17828
8.495662,3792
8.496661,24405
8.497663,6353
8.498660,22469
8.499659,48875
8.500661,56285
8.501661,18068
8.502661,6737
8.503661,33960
8.504661,11538
8.505661,3760
8.506663,53693
8.507662,17844
8.508661,65535
8.509663,34120
8.510659,2624
8.511662,8145
8.512662,34744
8.513660,25558
8.514663,6689
8.515662,7009
8.516661,65535
8.517661,53789
8.518661,47051
8.519660,11042
8.520662,6081
8.521662,5521
8.522662,57117
8.523663,11970
8.524661,8610
8.525660,4705
8.526660,21381
8.527661,12034
8.528662,22165
8.529663,19908
8.530661,14563
8.531661,39769
8.532661,16195
8.533661,49436
8.534662,19124
8.535659,13251
8.536661,28310
8.537661,4321
8.538662,17348
8.539661,42250
8.540661,10866
8.541661,9666
8.542660,38345
8.543660,65535
8.544660,7265
8.545661,15123
8.546662,3072
8.547659,29063
8.548661,19332
8.549659,3472
8.550663,18324
8.551678,6193
8.552670,7521
8.553667,38889
8.554662,40297
8.555661,9138
8.556662,39897
8.557660,7249
8.558661,57341
8.559661,35176
8.560660,15555
8.561662,21893
8.562661,14003
8.563664,13187
8.564662,25302
8.565659,19700
8.566661,31207
8.567661,8306
8.568661,32439
8.569661,4897
8.570659,3648
8.571661,7521
8.572662,25398
8.573661,29511
8.574659,8962
8.575661,6081
8.576661,17572
8.577662,20324
8.578663,27414
8.579661,21077
8.580661,8177
8.581662,24854
8.582663,17972
8.583662,24854
8.584661,21077
8.585661,5121
8.586660,12178
8.587658,4865
8.588663,24565
8.589662,7553
8.590662,14307
8.591663,26182
8.592661,4385
8.593661,14003
8.594661,6865
8.595661,41658
8.596661,65535
8.597661,17076
8.598661,18916
8.599659,14435
8.600660,5585
8.601661,10050
8.602662,18196
8.603661,8242
8.604663,8001
8.605663,17268
8.606661,21077
8.607662,3856
8.608660,33736
8.609661,26406
8.610661,25158
8.611662,6049
8.612661,4161
8.613661,7873
8.614660,17988
8.615678,6977
8.616664,52620
8.617661,51484
8.618662,29927
8.619661,8274
8.620661,22293
8.621662,15043
8.622662,42794
8.623662,58030
8.624661,65535
8.625661,53773
8.626661,4641
8.627663,42938
8.628663,61759
8.629661,17940
8.630660,10946
8.631662,5521
8.632660,3632
8.633661,25398
8.634662,5761
8.635661,41818
8.636660,4673
8.637661,6977
8.638663,8498
8.639660,10706
8.640662,18516
8.641662,9186
8.642661,7089
8.643661,14355
8.644661,21157
8.645661,14963
8.646662,3712
8.647661,27078
8.648661,5393
8.649662,18836
8.650661,4865
8.651661,17076
8.652661,23397
8.653661,52172
8.654662,5697
8.655661,14723
8.656661,10242
8.657661,18628
8.658660,15715
8.659662,3072
8.660660,8514
8.661660,5185
8.662661,30279
8.663662,4497
8.664660,13091
8.665660,14931
8.666661,15203
8.667661,5505
8.668661,64719
8.669662,44266
8.824307,36905
8.825327,58334
8.826095,23701
8.826845,17092
8.827590,25894
8.828417,65535
8.829165,65535
8.829911,55005
8.830662,9666
8.831423,31367
8.832174,20356
8.832926,11938
8.833679,3952
8.834431,4225
8.835181,33608
8.835937,19076
8.836688,6833
8.837467,3040
8.838227,3056
8.838987,6337
8.839749,36472
8.840506,8177
8.841265,20837
8.842027,15763
8.842790,54285
8.843550,23237
8.844314,4321
8.845079,10402
8.845846,32327
8.846610,38745
8.847377,13619
8.848141,19604
8.848904,56173
8.849708,33352
8.850661,54093
8.851663,64415
8.852664,12611
8.853661,19540
8.854661,22341
8.855664,6769
8.856662,16452
8.857663,4289
8.858660,27094
8.859661,40953
8.860661,29047
8.861661,18772
8.862661,25926
8.863660,13571
8.864662,5121
8.865660,65535
8.866663,65535
8.867661,29159
8.868661,8177
8.869663,45691
8.870661,54173
8.871682,27574
8.872663,24533
8.873664,10754
8.874663,27942
8.875662,31319
8.876661,14371
8.877662,28775
8.878661,14355
8.879659,5633
8.880662,3872
8.890909,25942
8.891142,5969
8.891352,17636
8.891563,31383
8.891781,39017
8.891989,40970
8.892199,31319
8.892412,7953
8.892630,13347
8.892851,24902
8.893663,9474
8.894662,38153
8.895663,65535
8.896661,48651
8.897662,6593
8.898659,41546
8.899659,65535
8.900663,23061
8.901659,5937
8.902661,27350
8.903662,22613
8.904659,5841
8.905662,8113
8.906663,18388
8.907660,32487
8.908663,3552
8.909661,17444
8.910660,9314
8.911660,5137
8.912662,8017
8.913663,25318
8.914660,17604
8.915661,3456
8.916663,4961
8.917661,3376
8.918661,4433
8.919662,4961
8.920660,25798
8.921659,20517
8.922662,41722
8.923662,5985
8.924661,37449
8.925659,4609
8.926663,10706
8.927662,65535
8.928661,65535
8.929661,3344
8.930660,25478
8.931661,3376
8.932663,6513
8.933659,4449
8.934661,41178
8.935674,5697
8.936670,4016
8.937668,8546
8.938662,9490
8.939662,40761
8.940663,14339
8.941661,5297
8.942659,15203
8.943663,5473
8.944664,43162
8.945661,7121
8.946660,44506
8.947660,20613
8.948662,7921
8.949661,9490
8.950659,11314
8.951662,6289
8.952661,18964
8.953661,15651
8.954660,13299
8.955662,19812
8.956659,44202
8.957662,40233
8.958663,17156
8.959661,54621
8.960661,12339
8.961661,10162
8.962661,29351
8.963661,15715
8.964662,38473
8.965661,12355
8.966661,33608
8.967662,30567
8.968660,24902
8.969661,33864
8.970661,2896
8.971662,6225
8.972661,47403
8.973662,20196
8.974661,11858
8.975663,5217
8.976662,24229
8.977663,18468
8.978662,16323
8.979661,3968
8.980660,6097
8.981663,16291
8.982663,33816
8.983664,11858
8.984660,5393
8.985662,25222
8.986662,8770
8.987661,13891
8.988661,58574
8.989662,65535
8.990662,19364
8.991661,32231
8.992662,5745
8.993661,15283
8.994662,34824
8.995662,33160
8.996662,5025
8.997663,8610
8.998663,4433
8.999680,10658
9.000666,44858
9.001662,5313
9.002661,4401
9.003661,14051
9.004662,7953
9.005663,8610
9.006661,10130
9.007661,7457
9.008661,12307
9.009663,4641
9.010661,40953
9.011661,18596
9.012663,17364
9.013659,45275
9.014661,21061
9.015661,65535
9.016661,17508
9.017661,65535
9.130824,52508
9.131418,45723
9.131780,40393
9.132120,40169
9.132460,23221
9.132872,4129
9.133208,6177
9.133549,3504
9.133895,9778
9.134250,4753
9.134591,6689
9.134936,22965
9.135278,30343
9.135661,36536
9.136662,6577
9.137663,12178
9.138661,23349
9.139661,29607
9.140662,26038
9.141661,40970
9.142662,5169
9.143662,26134
9.144660,37001
9.145662,27206
9.146661,6577
9.147664,16980
9.148662,40953
9.149659,31159
9.150662,9538
9.151659,49708
9.152662,39689
9.153663,22293
9.154661,33816
9.155661,28759
9.156663,3056
9.157661,28887
9.158661,40649
9.159661,15875
9.160661,4577
9.161659,3584
9.162662,8338
9.163661,6273
9.164663,22981
9.165662,43706
9.166663,53309
9.167661,22229
9.168663,9442
9.169661,15731
9.170661,13203
9.171658,52460
9.172660,47963
9.173663,36712
9.174661,7713
9.175658,65535
9.176660,30551
9.177662,20533
9.178661,22549
9.179661,30311
9.180659,17732
9.181663,35656
9.182662,65535
9.183659,7009
9.184663,15075
9.185659,25574
9.186662,18964
9.187660,31799
9.188661,21509
9.189663,14675
9.190660,3424
9.191686,3792
9.192667,20244
9.193664,15059
9.194663,27190
9.195660,11490
9.196661,3344
9.197660,7393
9.198660,3360
9.199662,14771
9.200661,15683
9.201663,27942
9.202662,18276
9.203662,4945
9.204663,2768
9.205662,20196
9.206661,16388
9.207662,13763
9.208661,22869
9.209661,25686
9.210662,22357
9.211662,12355
9.212663,33512
9.213661,7105
9.214661,65535
9.215663,57341
9.216664,28326
9.217662,8370
9.218662,15187
9.219660,3008
9.220662,2816
9.221661,14355
9.222660,5713
9.223662,39097
9.224662,7089
9.225662,24133
9.226660,12162
9.227661,48875
9.228661,11042
9.229663,15955
9.230662,12162
9.231661,3600
9.232660,45787
9.233660,36760
9.234662,24165
9.235660,65535
9.236661,13955
9.237663,3472
9.238660,28198
9.239663,2736
9.240661,4417
9.241662,6353
9.242662,2752
9.243663,55965
9.244660,11362
9.245661,9298
9.246662,23477
9.247663,10514
9.248662,38361
9.249659,65007
9.250662,26262
9.251661,9522
9.252660,8978
9.253662,5041
9.254663,65535
9.255684,24565
9.256668,5553
9.257664,34664
9.258662,37273
9.259663,4881
9.260662,39577
9.261659,18580
9.262661,2496
9.263659,5921
9.264662,8370
9.265661,8145
9.266661,11986
9.267660,18516
9.268664,48443
9.269662,11410
9.270662,5985
9.271662,26278
9.272662,16035
9.273660,22341
9.274661,39577
9.275661,5297
9.276662,6865
9.277660,5137
9.278660,6321
9.279660,19700
9.280661,39561
9.281663,17444
9.282661,7393
9.283663,5297
9.284661,3712
9.285661,42298
9.286659,16420
9.287662,9778
9.288663,47419
9.289664,46763
9.290661,22293
9.291663,20629
9.292661,16468
9.293662,5921
9.294661,3248
9.295660,8498
9.296660,5169
9.297660,41178
9.298662,13059
9.299662,18644
9.300661,16980
9.301662,19764
9.302660,40953
9.303661,5905
9.304663,65535
9.305661,65535
9.306661,16436
9.307663,25766
9.308662,13027
9.309659,22181
9.310662,16115
9.311662,13875
9.312662,24998
9.313661,6417
9.314661,9858
9.315661,24902
9.316660,4801
9.317663,8594
9.318661,3712
9.319679,4737
9.320663,55725
9.321661,12066
9.477882,37593
9.478653,5009
9.479176,27958
9.479683,34520
9.480178,5281
9.480744,12018
9.481235,5217
9.481729,3520
9.482222,16420
9.482735,44058
9.483226,39449
9.483724,14851
9.484221,4321
9.484722,3216
9.485219,5057
9.485720,6689
9.486661,27398
9.487661,12675
9.488661,65535
9.489662,65535
9.490661,11842
9.491661,65535
9.492661,53997
9.493663,39017
9.494661,17892
9.495661,59918
9.496661,41466
9.497659,5521
9.498661,4609
9.499661,37817
9.500659,10466
9.501660,8177
9.502660,24565
9.503661,15795
9.504661,65535
9.505663,54653
9.506659,6449
9.507662,28550
9.508660,22245
9.509661,22597
9.510664,65535
9.511681,58926
9.512666,25414
9.513662,4977
9.514660,7185
9.515661,36216
9.516661,16836
9.517661,24790
9.518661,8786
9.519661,65535
9.520661,4849
9.521661,25686
9.522663,18884
9.523661,3504
9.524662,36456
9.525661,26166
9.526661,35496
9.527663,49772
9.528659,19268
9.529660,9890
9.530660,43418
9.531661,63823
9.532661,18916
9.533659,15171
9.534661,28342
9.535661,25142
9.536659,19812
9.537661,65535
9.538660,22693
9.539661,9874
9.540662,13875
9.541659,52508
9.542660,45275
9.543662,5265
9.544659,5185
9.545661,4113
9.546661,7665
9.547661,56285
9.548661,16339
9.549660,10114
9.550663,33816
9.551661,16371
9.552663,13491
9.553661,32984
9.554661,5329
9.555661,4241
9.556661,5889
9.557661,13619
9.558660,5793
9.559662,8177
9.560661,13699
9.561660,4641
9.562660,29879
9.563660,8033
9.564662,10930
9.565661,45307
9.566661,3568
9.567660,17060
9.568661,47291
9.569661,7329
9.570660,24197
9.571659,44346
9.572662,49292
9.573661,23813
9.574662,6193
9.575674,7153
9.576666,10882
9.577662,2416
9.578661,5777
9.579661,16099
9.580663,26918
9.581660,28486
9.582662,65535
9.583663,23077
9.584661,58142
9.585660,33976
9.586663,4449
9.587661,3920
9.588660,28342
9.589662,4241
9.590660,3152
9.591663,13955
9.592663,8434
9.593662,39849
9.594663,33000
9.595661,46315
9.596663,6577
9.597662,41690
9.598662,31927
9.599662,3488
9.600659,42218
9.601660,42042
9.602662,65535
9.603660,17220
9.604663,18868
9.605662,37609
9.606661,27014
9.607660,4993
9.608661,24469
9.609662,24309
9.610659,11586
9.611661,5729
9.612661,17492
9.613660,48251
9.614660,4529
9.615663,27430
9.616661,20404
9.617661,4993
9.618662,8290
9.619661,6785
9.620660,62911
9.621662,20789
9.622662,40233
9.623661,5025
9.624659,61086
9.625662,16163
9.626662,28310
9.627661,46139
9.628662,20949
9.629663,30887
9.630662,4881
9.631662,26006
9.632662,65535
9.633659,65535
9.634659,19236
9.635661,65535
9.636660,65535
9.637661,43914
9.638662,31175
9.639678,22501
9.640666,14707
9.641664,49019
9.642663,8354
9.643663,11826
9.644661,14563
9.645663,3584
9.646663,2752
9.647660,30439
9.648661,29767
9.649663,5121
9.650661,65535
9.651662,55021
9.652659,21973
9.653661,5505
9.654662,2688
9.655661,7777
9.656659,32567
9.657663,27174
9.658663,14659
9.659660,5761
9.660661,26278
9.661663,11218
9.662661,19604
9.663660,7873
9.664660,12995
9.665661,13155
9.666661,18756
9.667661,30679
9.668661,15299
9.669662,65535
9.820815,9026
9.821725,8258
9.822401,2592
9.823060,20549
9.823709,15203
9.824414,4401
9.825065,6865
9.825716,4913
9.826364,8482
9.827029,14355
9.827680,3136
9.828327,4529
9.828976,4193
9.829628,3920
9.830276,3584
9.830929,6081
9.831706,2912
9.832385,720
9.833044,8802
9.833698,11490
9.834354,13987
9.835009,14723
9.835666,10930
9.836663,4032
9.837662,2880
9.838661,2672
9.839661,2800
9.840662,4913
9.841661,4097
9.842663,5217
9.843660,5825
9.844662,3808
9.845660,2688
9.846661,2896
9.847662,8450
9.848661,3584
9.849661,4865
9.850661,3408
9.851661,2896
9.852662,9234
9.853661,2128
9.854662,2496
9.855661,4449
9.856661,5089
9.857661,3936
9.858662,8177
9.859660,10706
9.860660,5745
9.861659,3664
9.862663,4673
9.863661,9154
9.864662,5089
9.865661,2928
9.866659,4048
9.867662,11010
9.868664,3232
9.869660,3248
9.870663,6673
9.871663,7649
9.872662,2928
9.873663,3136
9.874662,5393
9.875660,7985
9.876662,2832
9.877660,9250
9.878663,9138
9.879662,3232
9.880660,2704
9.881661,3360
9.882661,2992
9.883661,2816
9.884664,3216
9.885661,2704
9.886659,2576
9.887662,6929
9.888663,5041
9.889659,11090
9.890662,3648
9.891662,5185
9.892661,3344
9.893659,3504
9.894661,4769
9.895678,6817
9.896665,4161
9.897662,2448
9.898662,3904
9.899663,15571
9.900661,15795
9.901661,3456
9.902660,5921
9.903661,19604
9.904661,2384
9.905660,5249
9.906662,7265
9.907662,3712
9.908661,2608
9.909664,4865
9.910661,5217
9.911661,3360
9.912662,8370
9.913663,10418
9.914661,10754
9.915661,4241
9.916659,4737
9.917661,5361
9.918663,10034
9.919662,4209
9.920661,8754
9.921661,20420
9.922661,4737
9.923662,31319
9.924662,13843
9.925662,41770
9.926661,4929
9.927660,22037
9.928661,4064
9.929661,16211
9.930661,7921
9.931660,3248
9.932660,2208
9.933662,11282
9.934661,13507
9.935660,3808
9.936661,4481
9.937660,2992
9.938659,4785
9.939661,4545
9.940661,4545
9.941660,9010
9.942661,4064
9.943661,3456
9.944660,3488
9.945662,5553
9.946659,4016
9.947660,3296
9.948662,3360
9.949660,6065
9.950661,3856
9.951662,7169
9.952661,2752
9.953660,3712
9.954663,2448
9.955662,4769
9.956661,2624
9.957663,5457
9.958663,2256
9.959678,5377
9.960666,2624
9.961663,2576
9.962661,2896
9.963662,3024
9.964660,4449
9.965661,3008
9.966661,8530
9.967661,10962
9.968662,3040
9.969661,7057
9.970659,15059
9.971662,12755
9.972661,9506
9.973660,7713
9.974662,10578
9.975660,3520
9.976660,4833
9.977659,4945
9.978662,4769
9.979661,3888
9.980660,8145
9.981661,18084
9.982661,17028
9.983662,4080
9.984661,13795
9.985660,8306
9.986662,6465
9.987661,2864
9.988661,5281
9.989663,3584
9.990664,6369
9.991659,4321
9.992661,2704
9.993661,7937
9.994663,6801
9.995661,4641
9.996661,3408
9.997660,10242
9.998660,2496
9.999660,8514
10.000663,3648
10.002413,18116
10.003332,6385
10.004140,5601
10.004916,2640
10.005672,9810
10.006661,25542
10.007663,4417
10.008661,13971
10.009662,13379
10.010663,4689
10.011662,12707
10.012662,13459
10.132734,3424
10.133808,3552
10.134661,9122
10.135474,2624
10.136284,2816
10.137166,3968
10.137980,4737
10.138791,2528
10.139597,3776
10.140427,4993
10.141241,3104
10.142058,4513
10.142876,2912
10.143693,3552
10.144502,3296
10.152006,13139
10.152256,18628
10.152495,19748
10.152711,22581
10.152920,20965
10.153135,23029
10.153347,24373
10.153557,25094
10.153776,21381
10.153993,16564
10.154662,6945
10.155658,5393
10.156661,5009
10.157661,2176
10.158661,9938
10.159661,3232
10.160663,6065
10.161660,5297
10.162661,11442
10.163662,8658
10.164662,5393
10.165661,12787
10.166662,4753
10.167663,2496
10.168660,3200
10.169661,4497
10.170660,2656
10.171660,2512
10.172662,4193
10.173659,2576
10.174663,2464
10.175661,9250
10.176662,2880
10.177662,6241
10.178660,2880
10.179661,3344
10.180660,3024
10.181660,2480
10.182661,3264
10.183659,6977
10.184661,5825
10.185661,4385
10.186660,2896
10.187661,6241
10.188663,7713
10.189660,3344
10.190663,3504
10.191661,2752
10.192662,12995
10.193663,2704
10.194660,2544
10.195661,4945
10.196659,2800
10.197663,2960
10.198661,3376
10.199661,3760
10.200660,12066
10.201661,3536
10.202662,7841
10.203660,14595
10.204661,10562
10.205661,4433
10.206661,20180
10.207662,6657
10.208662,5025
10.209661,2448
10.210661,3680
10.211662,4593
10.212660,9346
10.213662,4289
10.214662,2784
10.215680,7297
10.216668,9474
10.217661,2704
10.218660,2768
10.219660,3136
10.220661,4097
10.221661,3888
10.222659,3648
10.223664,4369
10.224659,5937
10.225661,7777
10.226660,4064
10.227661,5649
10.228662,3088
10.229659,3552
10.230661,4353
10.231660,16067
10.232662,8113
10.233662,3200
10.234659,11714
10.235659,19812
10.236662,4064
10.237660,4673
10.238661,2496
10.239662,3008
10.240659,7425
10.241663,3024
10.242662,7057
10.243662,12050
10.244662,4881
10.245661,5377
10.246661,4257
10.247660,2816
10.248661,4449
10.249662,3840
10.250661,9570
10.251662,7393
10.252658,6353
10.253662,2800
10.254661,6497
10.255662,9250
10.256661,3232
10.257662,5553
10.258662,4321
10.259661,3008
10.260662,6945
10.261660,3168
10.262661,2768
10.263662,3216
10.264661,20132
10.265662,9138
10.266662,3600
10.267661,2768
10.268664,3264
10.269660,7073
10.270663,4769
10.271663,6913
10.272660,5297
10.273661,5841
10.274661,8177
10.275661,9858
10.276660,19716
10.277661,9890
10.278662,13475
10.279688,4513
10.280669,3120
10.281667,4513
10.282664,4529
10.283658,2432
10.284659,8177
10.285662,9666
10.286659,5985
10.287663,4385
10.288660,19684
10.289661,5457
10.290661,4561
10.291663,3808
10.292662,3744
10.293662,6465
10.294661,2496
10.295661,3760
10.296662,3856
10.297660,2672
10.298660,3120
10.299661,2784
10.300661,2256
10.301661,2432
10.302661,4289
10.303660,2592
10.304662,5377
10.305660,17892
10.306661,4417
10.307663,16051
10.308661,15587
10.309661,6721
10.310662,2352
10.311662,4737
10.312663,3360
10.313659,2832
10.314661,2960
10.315660,4449
10.316661,6209
10.317661,3008
10.318662,5329
10.319661,2720
10.320661,3328
10.321661,2816
10.322660,10338
10.323663,8354
10.324659,3472
10.325662,7761
10.326663,3808
10.327663,4673
10.328661,5393
10.494313,4545
10.494959,4529
10.495368,2720
10.495751,3152
10.496119,2656
10.496558,4000
10.496931,4177
10.497301,2912
10.497678,4129
10.498064,3344
10.498435,4449
10.498807,3216
10.499178,4369
10.499660,3408
10.500662,2576
10.501661,7425
10.502662,2560
10.503661,2512
10.504661,4913
10.505662,4561
10.506661,2992
10.507660,3232
10.508660,4064
10.509663,5345
10.510661,3568
10.511661,3392
10.512662,11106
10.513661,9554
10.514663,2880
10.515660,4000
10.516662,2960
10.517661,2864
10.518661,4385
10.519661,4289
10.520664,3856
10.521660,5089
10.522661,2864
10.523664,2224
10.524661,3936
10.525663,2800
10.526661,3824
10.527661,3168
10.528663,3760
10.529660,2688
10.530662,4785
10.531663,3776
10.532660,4097
10.533660,4032
10.534661,3648
10.535678,2784
10.536668,2704
10.537663,2816
10.538661,5345
10.539661,5169
10.540663,2688
10.541663,2528
10.542662,3552
10.543662,2864
10.544660,2736
10.545663,2912
10.546661,2720
10.547661,3552
10.548663,2624
10.549661,2496
10.550661,2608
10.551662,2736
10.552661,6049
10.553661,2816
10.554664,3920
10.555662,2784
10.556661,2560
10.557663,3232
10.558661,2896
10.559664,3328
10.560660,7169
10.561661,2592
10.562663,3520
10.563661,3168
10.564661,2640
10.565661,3216
10.566661,4161
10.567661,2960
10.568661,2784
10.569661,5537
10.570661,7345
10.571661,3344
10.572663,2992
10.573661,2896
10.574663,2480
10.575662,3872
10.576661,2336
10.577660,3008
10.578663,3376
10.579660,7041
10.580661,2752
10.581661,4161
10.582661,2848
10.583661,4609
10.584662,2864
10.585661,3632
10.586660,3440
10.587659,4129
10.588661,4289
10.589660,4753
10.590661,3456
10.591661,2816
10.592661,4353
10.593662,3440
10.594661,5889
10.595663,2752
10.596660,3536
10.597660,2592
10.598663,4241
10.599675,3968
10.600666,2896
10.601665,3248
10.602664,2432
10.603661,2688
10.604662,2400
10.605661,4353
10.606662,3152
10.607661,3664
10.608662,4513
10.609664,2864
10.610662,3408
10.611661,5601
10.612661,3360
10.613663,3472
10.614660,3344
10.615662,3200
10.616661,2576
10.617661,3568
10.618661,7777
10.619662,3232
10.620659,3568
10.621661,2368
10.622662,4113
10.623663,3424
10.624659,3040
10.625662,3376
10.626663,3632
10.627662,5153
10.628661,3344
10.629661,8770
10.630660,3136
10.631660,2560
10.632661,3216
10.633663,2880
10.634662,2912
10.635661,3536
10.636661,3248
10.637662,3840
10.638660,3936
10.639661,3616
10.640661,3600
10.641663,2720
10.642661,3536
10.643661,4305
10.644661,6433
10.645660,4609
10.646662,4769
10.647661,3776
10.648660,6305
10.649661,5377
10.650662,4801
10.651661,5505
10.652661,3680
10.653662,3920
10.654663,3744
10.655662,4737
10.656663,3312
10.657660,8706
10.658662,3648
10.659660,6913
10.660661,5025
10.661660,3680
10.662661,3600
10.663678,2384
10.664665,3376
10.665666,3376
10.666661,4177
10.667663,4177
10.668663,5601
10.669662,3472
10.670659,3488
10.671661,3936
10.672662,3728
10.673661,5345
10.674660,3312
10.675661,4064
10.676661,4000
10.677661,3600
10.678661,4785
10.679661,3136
10.680659,2864
10.681660,3376
10.682661,3680
10.683661,2960
10.684658,3024
10.685661,3152
10.837501,2816
10.838286,3632
10.838847,3200
10.839376,1872
10.839905,2960
10.840497,4737
10.841023,2944
10.841545,2816
10.842073,3376
10.842612,3584
10.843140,3152
10.843669,3216
10.844196,2960
10.844727,3120
10.845255,2832
10.845786,4000
10.846313,4145
10.846866,3408
10.847663,3280
10.848661,6641
10.849661,4016
10.850662,5681
10.851661,7425
10.852661,5249
10.853659,3872
10.854663,3024
10.855738,3328
10.856669,2752
10.857663,3760
10.858662,5025
10.859662,4833
10.860661,4097
10.861661,2912
10.862662,3360
10.863662,3744
10.864661,3504
10.865662,3152
10.866661,3344
10.867662,4817
10.868663,3488
10.869661,3856
10.870661,4417
10.871662,3552
10.872661,4129
10.873661,3216
10.874660,3040
10.875662,2896
10.876661,3696
10.877660,4032
10.878663,3312
10.879661,4225
10.880661,4080
10.881660,5777
10.882660,6481
10.883659,4257
10.884663,8177
10.885662,4481
10.886661,4161
10.887661,5809
10.888661,3744
10.889659,3504
10.890661,4241
10.891662,3472
10.892661,3984
10.893661,3760
10.894663,3008
10.895661,3456
10.896664,3152
10.897661,3136
10.898660,2896
10.899661,4113
10.900663,3408
10.901661,5969
10.902661,4000
10.903661,3856
10.904661,6081
10.905661,3056
10.906660,3072
10.907661,3200
10.908663,3392
10.909661,3616
10.910661,3504
10.911661,3648
10.912662,4369
10.913661,5073
10.914662,3760
10.915662,3328
10.916662,3872
10.917659,3664
10.918662,2992
10.919704,4737
10.920676,3136
10.921664,3456
10.922665,4913
10.923659,3616
10.924661,4048
10.925662,3168
10.926660,4481
10.927660,2960
10.928660,3360
10.929661,3168
10.930660,3424
10.931662,3552
10.932660,3344
10.933659,4401
10.934663,5985
10.935661,3632
10.936663,3424
10.937662,3232
10.938661,3152
10.939662,4097
10.940659,3648
10.941661,2608
10.942660,3728
10.943663,4625
10.944661,3120
10.945662,4113
10.946662,4481
10.947661,2944
10.948661,3280
10.949661,2976
10.950660,2944
10.951661,3104
10.952661,3136
10.953663,2944
10.954660,3200
10.955659,3984
10.956661,3632
10.957661,3696
10.958663,4064
10.959661,3488
10.960660,3040
10.961660,3296
10.962662,3888
10.963661,4513
10.964663,2992
10.965659,6961
10.966661,3904
10.967659,3088
10.968660,4529
10.969661,3296
10.970661,2784
10.971660,2912
10.972659,4032
10.973662,2976
10.974663,4080
10.975662,3616
10.976659,3824
10.977661,3024
10.978661,3312
10.979662,4417
10.980659,3344
10.981660,3120
10.982661,2944
10.983661,3392
10.984677,2384
10.985667,3200
10.986662,2992
10.987662,3840
10.988660,3088
10.989662,3856
10.990661,5569
10.991660,3920
10.992662,3776
10.993660,2656
10.994659,2864
10.995661,4481
10.996662,2864
10.997663,3200
10.998661,3168
10.999661,3088
11.000663,2864
11.001661,3536
11.002660,3664
11.003661,2576
11.004662,3456
11.005663,4321
11.006661,3328
11.007660,2864
11.008663,3056
11.009659,3056
11.010662,4225
11.011662,3104
11.012660,3136
11.013661,4545
11.014661,3232
11.015661,3552
11.016661,2992
11.017661,4241
11.018664,3920
11.019660,3440
11.020661,4353
11.021661,3632
11.022661,4209
11.023661,2576
11.024662,5937
11.025661,3792
11.026664,3328
11.027659,2384
11.028660,3504
11.178002,3920
11.178945,2608
11.179670,2784
11.180352,3216
11.181040,2688
11.181783,2496
11.182453,3856
11.183133,2944
11.183813,3760
11.184512,2768
11.185192,3136
11.185871,3584
11.186549,2336
11.187228,2960
11.187909,2272
11.188588,3216
11.189270,3072
11.189974,2480
11.190660,3488
11.191341,3840
11.192030,4241
11.192712,3392
11.193399,3888
11.194092,3008
11.194782,2256
11.195663,3776
11.196662,4241
11.197661,3584
11.198659,3776
11.199661,7201
11.200661,4561
11.201661,3296
11.202661,3376
11.203660,2768
11.204662,3744
11.205662,2912
11.206661,3856
11.207662,2976
11.208659,2896
11.209659,3248
11.210662,3520
11.211662,2992
11.212661,3856
11.213661,3920
11.214663,4609
11.215661,4449
11.216662,2912
11.217661,2752
11.218661,4657
11.219662,3040
11.220660,3200
11.221660,4048
11.222659,2768
11.223660,4016
11.224662,3328
11.225661,3568
11.226663,2464
11.227662,3456
11.228660,2944
11.229663,3120
11.230662,3424
11.231660,4609
11.232661,3168
11.233662,2944
11.234660,2816
11.235660,2496
11.236662,2656
11.237661,4129
11.238662,3072
11.239677,2592
11.240663,3360
11.241663,2816
11.242661,3584
11.243660,3184
11.244661,3728
11.245661,3200
11.246661,3456
11.247660,3168
11.248659,4177
11.249661,3920
11.250661,3136
11.251661,2752
11.252661,3408
11.253663,4097
11.254660,3712
11.255662,3632
11.256663,3488
11.257659,2992
11.258659,4016
11.259661,3024
11.260659,2256
11.261663,3600
11.262660,3504
11.263662,2896
11.264661,3024
11.265660,3504
11.266661,2560
11.267662,2304
11.268660,3296
11.269661,3456
11.270663,4881
11.271661,4048
11.272662,3904
11.273661,3200
11.274662,2736
11.275660,5313
11.276660,3072
11.277661,4417
11.278659,4129
11.279660,2640
11.280663,2736
11.281662,3376
11.282661,4080
11.283661,2848
11.284662,2192
11.285660,3040
11.286660,3168
11.287663,2720
11.288660,2768
11.289661,2800
11.290661,4657
11.291661,2608
11.292663,3552
11.293660,4000
11.294660,3968
11.295661,2576
11.296662,3088
11.297660,2800
11.298660,2448
11.299661,1968
11.300662,3040
11.301660,2832
11.302661,3424
11.303682,3792
11.304666,3264
11.305661,2960
11.306661,3248
11.307661,3760
11.308663,2464
11.309662,4625
11.310660,3376
11.311659,4000
11.312663,3136
11.313662,2704
11.314662,3200
11.315662,2016
11.316661,2768
11.317663,2688
11.318662,2320
11.319662,2592
11.320662,3360
11.321661,2016
11.322662,4753
11.323662,3456
11.324662,2944
11.325663,3248
11.326661,3360
11.327662,5121
11.328662,2848
11.329663,3648
11.330662,3360
11.331661,2640
11.332662,3104
11.333661,2992
11.334661,2944
11.335661,3888
11.336659,2624
11.337661,3424
11.338661,4385
11.339661,3488
11.340662,4689
11.341661,4177
11.342661,3264
11.343662,4785
11.344662,3120
11.345661,2336
11.346659,2704
11.347660,3056
11.348661,4369
11.349660,3376
11.350664,3984
11.351661,3200
11.352663,3472
11.353661,2640
11.354662,2912
11.355661,3152
11.356661,2832
11.357663,5617
11.358663,3840
11.359662,4257
11.360661,3888
11.361660,3408
11.362663,4369
11.363661,4641
11.364661,3088
11.365662,2960
11.366661,3872
11.367678,3104
11.368665,3376
11.369663,3280
11.489024,3200
11.489512,2784
11.489811,2880
11.490058,2224
11.490298,4449
11.490553,2272
11.490797,3360
11.491038,3728
11.491279,2912
11.491534,2576
11.491776,3792
11.492662,2784
11.493661,2992
11.494662,3424
11.495688,3232
11.496668,3024
11.497664,3632
11.498661,2784
11.499660,3024
11.500661,2240
11.501661,4016
11.502661,3456
11.503661,2432
11.504661,3952
11.505662,3424
11.506661,2528
11.507661,2864
11.508661,3504
11.509663,3344
11.510660,2768
11.511659,2016
11.512660,2400
11.513661,2208
11.514662,3376
11.515663,4097
11.516662,2976
11.517663,3104
11.518661,6193
11.519660,4881
11.520661,2816
11.521659,3200
11.522661,3312
11.523663,3536
11.524660,2400
11.525660,2496
11.526662,3360
11.527660,3136
11.528662,3504
11.529661,4064
11.530660,3152
11.531661,2960
11.532660,2976
11.533661,3168
11.534659,2864
11.535662,3312
11.536663,4353
11.537661,2512
11.538661,4577
11.539663,4289
11.540660,4865
11.541659,2784
11.542661,3840
11.543659,5041
11.544662,5073
11.545662,3104
11.546661,3120
11.547661,3280
11.548663,6145
11.549661,4289
11.550663,3456
11.551661,3232
11.552661,2240
11.553660,4145
11.554662,3488
11.555661,2400
11.556662,3520
11.557660,4433
11.558661,4673
11.559678,4385
11.560666,3472
11.561663,3120
11.562663,2992
11.563662,2848
11.564663,3376
11.565662,3712
11.566661,2736
11.567661,3296
11.568662,2960
11.569661,4000
11.570660,2592
11.571662,2560
11.572663,3424
11.573661,2560
11.574662,3104
11.575663,2608
11.576661,3856
11.577662,2640
11.578661,4097
11.579660,4305
11.580661,3616
11.581662,3344
11.582662,3040
11.583663,3584
11.584660,3728
11.585661,2448
11.586660,2400
11.587662,2432
11.588663,4625
11.589663,3296
11.590659,3360
11.591661,2544
11.592662,2896
11.593660,1968
11.594662,4481
11.595660,3280
11.596662,2864
11.597661,2336
11.598661,6305
11.599661,3904
11.600659,2080
11.601661,3104
11.602663,5217
11.603662,2496
11.604662,3584
11.605663,3728
11.606661,3680
11.607662,2880
11.608661,2384
11.609662,2640
11.610660,4657
11.611660,2896
11.612661,2528
11.613662,3392
11.614661,3216
11.615660,4193
11.616661,2464
11.617661,2320
11.618661,5281
11.619661,3408
11.620659,2496
11.621663,3296
11.622664,3632
11.623683,2768
11.624665,5569
11.625664,4129
11.626660,2192
11.627662,3600
11.628662,3120
11.629662,4833
11.630660,2128
11.631661,3136
11.632661,2240
11.633658,2768
11.634661,3072
11.635661,2736
11.636661,3392
11.637661,2816
11.638659,2736
11.639660,2272
11.640661,1584
11.641660,2304
11.642664,4016
11.643662,4289
11.644661,3344
11.645663,2512
11.646660,5681
11.647662,2560
11.648661,2224
11.649661,2704
11.650660,3008
11.651661,2272
11.652661,1776
11.653660,2192
11.654661,3312
11.655662,2480
11.656661,3104
11.657661,2080
11.658661,2848
11.659659,3680
11.660661,2352
11.661662,2064
11.662661,2976
11.663663,3728
11.664661,5105
11.665660,2208
11.666664,3120
11.667658,2208
11.668662,1744
11.669662,2112
11.670662,1776
11.671662,2256
11.672661,3264
11.673662,4161
11.674659,3040
11.675663,2992
11.676659,2352
11.677662,2064
11.678663,3120
11.679661,3344
11.680662,3056
11.837035,2544
11.837697,3280
11.838121,3408
11.838521,2848
11.838916,2816
11.839372,1968
11.839765,2656
11.840154,3104
11.840546,2704
11.840963,3008
11.841354,2368
11.841747,2512
11.842146,4369
11.842662,2896
11.843661,4241
11.844661,4801
11.845659,3888
11.846662,2832
11.847661,2656
11.848661,2416
11.849661,2080
11.850661,2080
11.851661,2288
11.852659,2560
11.853661,3072
11.854661,1888
11.855661,3088
11.856663,2768
11.857662,3104
11.858661,3664
11.859661,4080
11.860661,2496
11.861659,2624
11.862661,3792
11.863659,3184
11.864663,3520
11.865662,2880
11.866662,2640
11.867663,2144
11.868661,4273
11.869659,2688
11.870662,1808
11.871663,3104
11.872663,3600
11.873661,2256
11.874659,2672
11.875662,2608
11.876663,3888
11.877661,2688
11.878660,3328
11.879686,2336
11.880669,3728
11.881663,4961
11.882660,2896
11.883661,2080
11.884660,2704
11.885661,2640
11.886661,2272
11.887661,2352
11.888662,2848
11.889662,3536
11.890659,3120
11.891661,2544
11.892663,3392
11.893661,2736
11.894660,2592
11.895662,3808
11.896662,3920
11.897660,3248
11.898660,3104
11.899660,2272
11.900661,3104
11.901661,2448
11.902662,2080
11.903661,3200
11.904660,3168
11.905662,5553
11.906660,3248
11.907660,3568
11.908662,2864
11.909659,3600
11.910660,4032
11.911663,2848
11.912661,2832
11.913663,2336
11.914663,3120
11.915659,2240
11.916661,3488
11.917661,3584
11.918661,3136
11.919662,3008
11.920659,2880
11.921663,2544
11.922662,4273
11.923661,2656
11.924661,2704
11.925660,2736
11.926661,3936
11.927661,2864
11.928661,2256
11.929663,2144
11.930662,2832
11.931661,3664
11.932661,2720
11.933659,3712
11.934661,3152
11.935661,2608
11.936662,2896
11.937664,3488
11.938661,3984
11.939662,2256
11.940662,2928
11.941663,4321
11.942663,2528
11.943673,3664
11.944668,3600
11.945663,1872
11.946661,2000
11.947660,2832
11.948663,2752
11.949661,2576
11.950661,2640
11.951661,3808
11.952661,3680
11.953661,1728
11.954661,3424
11.955661,2592
11.956661,3200
11.957660,3584
11.958660,4769
11.959663,3520
11.960661,5665
11.961663,2608
11.962663,2624
11.963661,2560
11.964661,2384
11.965659,3264
11.966663,2576
11.967662,2512
11.968661,2848
11.969660,2640
11.970662,2304
11.971662,3376
11.972662,3296
11.973661,3088
11.974663,4577
11.975661,2608
11.976661,3040
11.977662,2432
11.978660,3024
11.979661,3280
11.980660,2464
11.981662,2704
11.982662,2640
11.983661,2384
11.984663,2640
11.985661,3056
11.986661,4449
11.987662,2752
11.988662,2848
11.989663,3232
11.990661,3216
11.991662,2784
11.992661,2896
11.993661,2576
11.994661,2640
11.995661,3808
11.996660,2400
11.997661,2784
11.998660,2640
11.999661,2800
12.000662,3136
12.001660,2192
12.002660,3664
12.003661,4000
12.004662,2608
12.005661,2688
12.006661,3408
12.007677,3344
12.008665,3504
12.009662,2576
12.010661,2272
12.011661,3072
12.012662,2992
12.013661,3456
12.014661,2240
12.015662,2624
12.016662,2496
12.017661,3264
12.018663,3168
12.019663,2976
12.020659,2144
12.021662,2624
12.022660,3200
12.023660,5265
12.024660,3136
12.025663,1952
12.026663,2624
12.027662,3216
12.028662,2736
12.187858,2960
12.188653,3376
12.189236,3296
12.189792,3632
12.190335,2064
12.190950,3024
12.191489,3392
12.192034,3024
12.192576,3376
12.193138,3072
12.193685,3376
12.194232,2928
12.194782,2720
12.195329,3120
12.195881,3504
12.196432,6241
12.196986,2720
12.197663,4273
12.198660,4064
12.199663,3600
12.200678,3488
12.201666,4273
12.202661,3248
12.203661,2864
12.204661,2720
12.205661,2880
12.206661,2528
12.207662,3728
12.208663,3136
12.209663,2848
12.210663,3072
12.211661,2768
12.212660,3344
12.213662,3040
12.214661,3600
12.215662,2864
12.216661,2688
12.217659,2464
12.218661,3920
12.219661,3632
12.220662,3376
12.221660,2912
12.222663,2208
12.223662,3264
12.224661,4064
12.225660,4705
12.226661,3200
12.227660,3424
12.228661,3280
12.229662,2448
12.230661,2912
12.231663,4080
12.232660,4257
12.233661,2832
12.234659,2320
12.235663,3104
12.236662,2992
12.237662,3744
12.238663,2576
12.239663,2816
12.240662,2624
12.241661,2592
12.242660,2944
12.243662,3248
12.244662,4032
12.245661,3824
12.246661,2928
12.247663,2192
12.248660,3152
12.249661,3376
12.250659,2688
12.251662,2720
12.252662,2624
12.253662,3888
12.254663,2736
12.255661,2832
12.256661,2896
12.257661,3312
12.258662,2976
12.259661,3456
12.260663,3664
12.261662,2736
12.262661,3456
12.263685,3168
12.264669,3104
12.265661,2608
12.266662,2432
12.267662,2576
12.268662,2528
12.269661,2512
12.270660,2688
12.271661,2816
12.272661,3520
12.273661,2512
12.274663,3680
12.275661,2864
12.276661,2640
12.277661,7297
12.278661,2848
12.279661,2832
12.280661,2432
12.281660,2848
12.282663,5201
12.283661,3376
12.284661,2800
12.285661,3104
12.286660,2272
12.287661,3536
12.288659,2608
12.289660,3600
12.290661,3440
12.291660,3584
12.292660,2448
12.293663,3040
12.294659,3072
12.295663,3008
12.296660,2848
12.297660,2720
12.298661,2960
12.299663,2384
12.300659,3232
12.301661,3232
12.302661,3360
12.303663,2816
12.304660,3008
12.305659,3808
12.306661,2320
12.307663,5073
12.308661,2592
12.309663,2976
12.310662,3536
12.311661,2976
12.312662,2960
12.313662,2960
12.314663,2944
12.315661,3376
12.316660,4080
12.317660,4257
12.318661,3568
12.319662,3792
12.320659,2976
12.321660,3024
12.322658,3168
12.323661,2656
12.324661,2576
12.325662,2736
12.326659,3280
12.327676,4016
12.328665,2496
12.329662,4369
12.330661,2608
12.331662,4913
12.332661,4513
12.333662,2400
12.334661,2688
12.335663,3008
12.336661,3296
12.337660,3968
12.338660,3120
12.339659,2752
12.340659,3136
12.341660,2896
12.342660,2560
12.343662,2848
12.344660,2480
12.345661,3360
12.346661,3264
12.347660,4913
12.348660,7441
12.349661,2960
12.350661,6241
12.351663,4032
12.352663,3856
12.353661,2208
12.354661,2896
12.355661,2672
12.356661,2352
12.357661,2304
12.358661,2208
12.359660,5441
12.360661,4257
12.361659,3104
12.362660,3424
12.363662,3168
12.364661,2624
12.365661,2096
12.366661,2608
12.367661,2496
12.368661,3472
12.369662,2752
12.370663,2384
12.371660,4161
12.372663,2464
12.373659,3776
12.374659,3504
12.375662,2288
12.376660,3664
12.377661,2384
12.378662,3104
12.379662,2736
12.524844,3648
12.525804,5073
12.526544,3200
12.527255,2992
12.527964,2912
12.528740,3728
12.529448,3152
12.530157,3136
12.530865,3248
12.531587,3712
12.532295,4289
12.533005,4145
12.533714,2272
12.534419,2864
12.535128,3024
12.535839,2368
12.536544,3152
12.537280,2784
12.537996,2992
12.538712,3488
12.539424,4097
12.540139,4305
12.540856,2752
12.541567,3744
12.542285,2608
12.543006,2688
12.543723,3136
12.544662,2560
12.545663,3392
12.546661,3824
12.547663,3280
12.548660,3120
12.549661,2784
12.550661,5281
12.551659,3168
12.552660,2432
12.553659,3152
12.554661,2736
12.555660,2352
12.556661,2928
12.557660,3584
12.558661,2704
12.559660,2848
12.560663,3184
12.561659,3744
12.562662,2816
12.563661,3776
12.564662,2864
12.565662,2912
12.566661,2272
12.567662,4225
12.568661,2992
12.569661,2432
12.570659,4801
12.571663,2208
12.572660,2592
12.573661,2624
12.574660,2224
12.575663,1760
12.576662,2896
12.577662,2960
12.578661,2656
12.579662,2800
12.580661,5185
12.581660,3200
12.582661,2448
12.583679,3456
12.584662,2560
12.585662,2448
12.586660,2848
12.587662,2640
12.588662,3152
12.589661,3792
12.590662,2256
12.591660,2528
12.592662,3648
12.593660,3456
12.594662,2256
12.595662,2896
12.596661,3360
12.597661,3152
12.598659,3456
12.599662,2400
12.600663,2128
12.601661,2448
12.602661,2240
12.603662,2784
12.604662,2288
12.605664,2848
12.606662,4177
12.607661,3472
12.608662,5425
12.609661,2544
12.610662,2560
12.611659,3184
12.612662,2512
12.613662,3008
12.614661,2256
12.615659,2704
12.616660,2656
12.617663,3488
12.618661,3232
12.619661,2144
12.620659,3504
12.621662,3584
12.622659,3712
12.623661,4113
12.624662,3328
12.625660,2688
12.626659,2240
12.627661,3040
12.628660,2560
12.629661,2864
12.630661,2704
12.631662,3360
12.632660,2336
12.633663,3456
12.634660,2368
12.635661,3616
12.636661,2688
12.637661,3632
12.638662,2960
12.639661,2768
12.640661,3968
12.641661,2320
12.642661,3584
12.643661,3152
12.644659,4449
12.645662,2960
12.646660,2480
12.647673,2624
12.648668,2848
12.649661,2640
12.650663,3024
12.651663,2688
12.652661,1936
12.653659,2640
12.654661,4385
12.655663,3152
12.656663,3104
12.657661,3616
12.658661,3136
12.659663,3136
12.660662,3584
12.661661,3584
12.662661,3632
12.663664,3872
12.664660,2848
12.665664,3200
12.666661,2096
12.667662,3072
12.668659,3296
12.669660,3776
12.670661,2624
12.671661,2208
12.672658,2288
12.673661,3216
12.674662,2240
12.675661,2896
12.676659,3648
12.677663,5025
12.678660,2944
12.679661,2864
12.680659,3056
12.681661,2976
12.682661,3376
12.683661,3776
12.684664,2208
12.685660,2048
12.686661,2464
12.687663,3232
12.698270,2896
12.698500,4064
12.698714,2880
12.698924,3824
12.699134,2624
12.699348,3152
12.699560,2464
12.699782,2768
12.699997,2288
12.700212,2736
12.700661,2880
12.701663,3488
12.702661,2624
12.703661,2560
12.704662,3280
12.705661,3616
12.706659,3808
12.707662,3776
12.708659,2656
12.709661,3536
12.710660,2752
12.711674,2800
12.712668,2304
12.713663,2640
12.714660,3648
12.715661,3040
12.716661,2864
12.717661,2896
12.718663,2896
12.828098,3904
12.828649,3888
12.828969,3600
12.829258,3200
12.829541,3968
12.829901,3600
12.830182,3328
12.830468,3216
12.830754,4785
12.831055,4161
12.831340,3376
12.831661,3200
12.832661,3664
12.833661,2688
12.834661,3232
12.835661,3520
12.836661,3008
12.837661,2720
12.838661,3728
12.839683,2352
12.840664,3664
12.841662,4016
12.842661,5201
12.843663,3200
12.844660,2736
12.845661,4161
12.846661,4145
12.847660,2880
12.848660,2944
12.849661,4753
12.850661,2864
12.851662,3616
12.852660,3040
12.853661,2896
12.854661,3328
12.855661,2896
12.856663,3376
12.857662,4225
12.858661,2720
12.859662,3312
12.860661,3008
12.861660,3104
12.862661,3344
12.863659,2784
12.864663,2608
12.865661,2560
12.866661,3552
12.867661,3792
12.868661,3056
12.869659,3920
12.870661,6273
12.871660,3472
12.872663,3104
12.873660,2720
12.874661,2976
12.875660,2944
12.876663,3008
12.877660,3600
12.878662,3904
12.879662,2976
12.880661,3088
12.881660,2752
12.882661,2736
12.883661,3216
12.884662,2864
12.885661,3008
12.886661,3744
12.887661,2880
12.888661,4225
12.889662,2384
12.890661,2768
12.891661,3264
12.892662,3392
12.893663,3136
12.894662,3984
12.895660,3888
12.896661,2880
12.897661,2192
12.898662,5121
12.899662,3648
12.900662,3200
12.901659,2992
12.902660,3200
12.903684,3472
12.904663,2832
12.905663,3248
12.906661,2992
12.907662,2592
12.908661,3072
12.909662,2992
12.910662,3760
12.911661,2880
12.912659,2912
12.913659,2896
12.914661,3280
12.915661,3968
12.916661,2976
12.917663,3264
12.918661,3504
12.919661,2464
12.920662,3696
12.921661,3280
12.922660,3392
12.923661,2864
12.924662,3008
12.925661,2880
12.926664,3072
12.927663,4417
12.928661,3472
12.929661,2576
12.930661,3216
12.931663,3024
12.932660,3152
12.933662,2560
12.934661,3712
12.935663,2704
12.936661,3328
12.937661,3168
12.938660,3472
12.939662,3232
12.940659,3024
12.941661,3120
12.942660,3392
12.943660,3520
12.944661,4048
12.945661,3872
12.946661,3296
12.947662,3712
12.948660,3296
12.949662,2896
12.950660,3216
12.951659,2896
12.952662,3760
12.953660,2480
12.954661,3232
12.955661,2976
12.956660,3968
12.957661,3488
12.958662,3008
12.959660,3312
12.960662,2848
12.961660,3360
12.962662,2720
12.963662,3296
12.964660,3104
12.965662,4048
12.966659,6897
12.967714,2768
12.968668,3120
12.969662,3392
12.970663,4497
12.971662,3632
12.972661,2560
12.973661,3088
12.974663,2864
12.975662,3376
12.976660,3344
12.977661,2544
12.978662,3152
12.979662,5281
12.980661,3664
12.981661,3088
12.982663,3008
12.983661,3392
12.984661,3392
12.985663,4145
12.986660,3504
12.987663,3072
12.988661,3600
12.989660,3104
12.990661,3664
12.991662,3280
12.992661,3760
12.993659,2784
12.994660,3216
12.995661,3024
12.996663,2416
12.997663,2384
12.998659,3392
12.999661,3648
13.000661,3104
13.001661,2976
13.002662,2592
13.003661,2768
13.004662,2720
13.005659,3728
13.006663,3408
13.007661,4241
13.008660,2768
13.009660,2720
13.010661,2896
13.011663,2768
13.012659,3584
13.013661,3712
13.014662,3072
13.015661,3888
13.016661,2512
13.017660,4032
13.018661,4449
13.019661,2528
13.180208,2848
13.180924,2224
13.181395,2272
13.181843,2592
13.182276,2192
13.182780,3552
13.183217,2512
13.183655,3008
13.184093,4273
13.184549,4705
13.184994,4016
13.185434,3456
13.185876,4177
13.186314,4609
13.186758,2912
13.187662,3168
13.188661,2992
13.189661,2912
13.190659,3792
13.191659,2800
13.192664,3472
13.193662,3360
13.194661,3808
13.195659,3120
13.196663,2720
13.197661,3856
13.198660,4257
13.199659,3360
13.200660,4048
13.201662,2832
13.202663,3536
13.203660,3424
13.204661,2992
13.205661,3504
13.206662,2352
13.207660,3776
13.208661,4625
13.209661,3824
13.210663,2992
13.211662,4561
13.212661,2512
13.213663,4129
13.214661,3792
13.215662,3008
13.216661,3936
13.217662,4097
13.218660,3056
13.219662,2736
13.220658,5505
13.221661,2880
13.222661,4801
13.223683,4097
13.224666,2832
13.225661,2704
13.226663,4561
13.227663,3008
13.228660,2784
13.229660,2544
13.230661,3952
13.231661,3200
13.232661,3632
13.233661,2768
13.234661,3408
13.235663,3120
13.236661,3920
13.237664,3616
13.238663,3296
13.239663,2768
13.240662,3152
13.241660,3168
13.242661,2576
13.243661,3408
13.244661,3424
13.245661,2944
13.246661,3648
13.247661,3088
13.248661,2352
13.249661,3072
13.250661,2704
13.251661,3920
13.252662,2592
13.253661,2864
13.254663,3088
13.255662,3216
13.256660,3296
13.257662,3264
13.258660,3456
13.259661,3760
13.260663,3584
13.261661,3616
13.262661,2448
13.263663,3088
13.264662,2608
13.265659,3296
13.266662,4032
13.267661,4465
13.268661,4449
13.269659,2560
13.270661,3232
13.271661,4321
13.272662,2816
13.273663,3168
13.274661,3472
13.275661,3232
13.276663,2992
13.277661,4193
13.278661,2896
13.279663,3904
13.280661,3616
13.281659,3072
13.282659,3632
13.283661,4561
13.284661,3328
13.285662,5185
13.286663,6097
13.287690,5825
13.288664,3616
13.289661,3088
13.290659,3136
13.291659,3664
13.292662,3216
13.293663,3312
13.294663,2640
13.295661,3392
13.296661,3360
13.297661,4321
13.298660,2608
13.299662,3520
13.300663,3488
13.301659,3072
13.302662,2432
13.303661,3632
13.304661,3792
13.305662,2960
13.306661,2800
13.307661,2944
13.308662,2976
13.309660,2784
13.310661,3680
13.311661,4016
13.312661,3520
13.313662,3968
13.314660,3280
13.315661,3648
13.316661,3424
13.317662,2912
13.318661,3824
13.319663,4161
13.320662,3104
13.321661,3584
13.322660,2896
13.323660,2976
13.324661,3344
13.325660,2176
13.326661,3040
13.327660,4113
13.328662,3584
13.329659,2960
13.330661,2256
13.331664,4016
13.332661,5025
13.333660,2656
13.334661,2848
13.335660,3408
13.336662,3968
13.337661,2736
13.338661,3632
13.339661,3984
13.340661,3648
13.341661,3504
13.342662,3760
13.343661,3072
13.344663,2528
13.345663,2432
13.346660,4401
13.347658,2976
13.348663,2448
13.349661,4129
13.350661,4913
13.351677,3568
13.352665,3920
13.353662,2960
13.354662,3424
13.355661,2976
13.356662,4273
13.357663,3504
13.358660,4032
13.359661,3280
13.360659,3488
13.361663,5569
13.362663,4000
13.363661,3808
13.364660,3152
13.365662,2752
13.366661,3600
13.367662,3424
13.368660,2864
13.369661,3456
13.370660,3152
13.371659,4641
13.526383,3472
13.527258,3376
13.527898,4993
13.528500,4353
13.529096,2768
13.529754,3344
13.530342,2208
13.530937,3808
13.531528,3664
13.532138,2640
13.532730,2256
13.533322,3536
13.533922,3280
13.534520,3280
13.535121,2400
13.535720,3424
13.536318,2256
13.536938,2944
13.537535,3856
13.538138,3376
13.538737,4529
13.539659,3520
13.540663,3200
13.541661,2496
13.542661,4097
13.543743,2144
13.544669,3680
13.545664,2992
13.546659,3344
13.547661,2960
13.548661,4481
13.549660,3664
13.550661,3744
13.551661,3392
13.552662,2720
13.553661,3264
13.554661,2944
13.555662,4353
13.556660,4064
13.557661,5009
13.558661,3856
13.559662,5153
13.560664,4161
13.561661,4032
13.562660,3024
13.563661,3616
13.564660,3280
13.565664,3728
13.566661,2880
13.567663,2640
13.568660,4433
13.569660,3744
13.570661,3360
13.571663,3008
13.572660,2496
13.573662,2496
13.574661,3392
13.575661,3488
13.576661,2864
13.577662,3456
13.578659,2768
13.579661,3296
13.580660,3488
13.581661,3136
13.582663,2944
13.583660,2480
13.584660,2384
13.585662,2592
13.586659,3104
13.587664,4321
13.588663,2864
13.589661,3408
13.590664,4881
13.591661,3024
13.592661,3296
13.593662,3856
13.594660,2912
13.595661,3136
13.596661,2688
13.597661,3120
13.598663,3440
13.599661,4641
13.600661,2752
13.601658,3568
13.602661,3632
13.603661,2000
13.604660,3136
13.605660,4433
13.606661,3232
13.607731,3488
13.608678,2192
13.609666,3040
13.610661,3888
13.611663,3776
13.612662,4705
13.613661,4433
13.614661,4497
13.615661,2848
13.616662,2992
13.617661,4064
13.618661,3248
13.619661,2880
13.620659,3344
13.621662,3680
13.622662,3440
13.623661,3728
13.624663,3600
13.625662,2832
13.626661,3344
13.627659,3456
13.628662,2704
13.629661,2752
13.630659,3568
13.631659,3696
13.632662,2896
13.633663,2736
13.634661,3120
13.635661,2864
13.636663,3888
13.637661,3008
13.638661,3104
13.639661,3232
13.640662,3040
13.641661,2880
13.642662,4881
13.643661,3024
13.644660,4593
13.645661,4289
13.646660,4097
13.647660,2864
13.648660,2704
13.649659,3248
13.650661,3296
13.651661,3296
13.652659,3248
13.653662,2960
13.654661,3328
13.655662,2880
13.656661,3344
13.657661,2768
13.658662,2224
13.659660,4097
13.660662,3104
13.661659,3200
13.662661,2768
13.663662,3184
13.664661,3040
13.665662,2944
13.666661,5217
13.667663,2784
13.668661,3376
13.669661,2848
13.670662,4016
13.671680,2144
13.672666,2976
13.673661,2544
13.674664,2816
13.675663,3616
13.676661,3808
13.677662,3664
13.678661,2816
13.679660,2528
13.680659,2928
13.681662,5169
13.682662,5457
13.683663,3040
13.684663,4161
13.685662,4705
13.686662,2752
13.687663,3552
13.688659,3184
13.689662,3152
13.690661,2880
13.691660,2752
13.692662,2880
13.693664,3264
13.694663,4865
13.695660,3920
13.696661,4289
13.697663,2976
13.698661,4993
13.699662,2736
13.700662,2352
13.701659,2896
13.702659,3264
13.703661,3040
13.704659,3248
13.705661,3168
13.706658,3632
13.707664,2816
13.708660,4577
13.709659,2960
13.710662,2976
13.711660,3728
13.712662,3312
13.713662,3232
13.714661,3328
13.715663,4145
13.716662,3152
13.717661,3648
13.875317,3232
13.876336,3488
13.877121,3264
13.877880,5057
13.878633,4785
13.879456,3120
13.880211,3136
13.880966,2976
13.881724,3104
13.882493,3664
13.883253,2752
13.884010,2576
13.884767,2912
13.885523,2848
13.886284,2240
13.887042,3248
13.887803,3584
13.888580,2496
13.889345,3408
13.890107,3008
13.890871,3072
13.891635,2704
13.892397,2384
13.893158,3792
13.893923,3792
13.894687,4801
13.895454,4673
13.896218,2640
13.896988,2720
13.897755,2704
13.898525,2528
13.899299,2736
13.900074,3104
13.900885,2272
13.901660,2848
13.902661,3136
13.903661,4545
13.904661,2752
13.905661,2736
13.906662,3472
13.907663,2512
13.908662,3504
13.909661,2912
13.910661,3040
13.911661,3008
13.912661,2960
13.913662,3168
13.914663,3328
13.915661,3040
13.916661,2944
13.917661,4385
13.918662,2880
13.919661,3008
13.920660,3136
13.921661,3104
13.922661,3712
13.923660,2960
13.924662,2784
13.925661,2880
13.926662,4177
13.927682,3328
13.928663,2976
13.929663,2816
13.930661,3040
13.931661,3536
13.941919,3136
13.942144,2768
13.942358,2992
13.942568,4305
13.942782,3552
13.942995,3040
13.943210,3504
13.943426,4369
13.943647,3088
13.943866,4561
13.944659,2240
13.945661,3792
13.946662,2832
13.947662,2816
13.948663,3296
13.949661,3536
13.950661,2944
13.951661,2576
13.952661,3408
13.953660,2768
13.954660,3488
13.955661,4513
13.956662,3920
13.957660,3232
13.958661,3136
13.959659,3488
13.960661,4865
13.961661,3296
13.962663,3504
13.963661,4032
13.964661,2944
13.965661,3408
13.966661,3360
13.967662,3232
13.968661,2944
13.969661,3488
13.970661,3152
13.971662,3312
13.972660,3568
