Tempo(s),EMG_Value
0.004497,6321
0.005990,5681
0.006392,5553
0.007331,4609
0.008321,4929
0.009320,5185
0.010317,5345
0.011317,5473
0.012318,4801
0.013317,5761
0.014317,6481
0.015317,5681
0.016318,6033
0.017318,5569
0.018319,5153
0.019318,5169
0.020317,6321
0.021317,5265
0.022316,5201
0.023317,5153
0.024316,5681
0.025320,5377
0.026317,5601
0.027317,5745
0.028318,4977
0.029315,5025
0.030319,5041
0.031317,5313
0.032316,5121
0.033319,4769
0.034317,7409
0.035318,6417
0.036317,7297
0.037315,5217
0.038316,5217
0.039316,6113
0.040315,5265
0.041317,5281
0.042315,5217
0.043316,6081
0.044381,6401
0.045324,4385
0.046320,4561
0.047317,5441
0.048317,6305
0.049317,5585
0.050318,5809
0.051317,5377
0.052317,6609
0.053318,5825
0.054317,5169
0.055316,5921
0.056317,6065
0.057318,5089
0.058317,5153
0.059316,6209
0.060319,5089
0.061318,5457
0.062317,5553
0.063316,6065
0.064319,5889
0.065317,5265
0.066316,5217
0.067318,5137
0.068315,5905
0.069319,5521
0.070315,5761
0.071317,5601
0.072317,5569
0.073317,5857
0.074317,5649
0.075317,4849
0.076317,5281
0.077318,5969
0.078317,5905
0.079317,5137
0.080315,5057
0.081316,5729
0.082315,5793
0.083316,5121
0.084317,6049
0.085318,7009
0.086319,6609
0.087315,5569
0.088316,5121
0.089317,5505
0.090317,5409
0.091317,5777
0.092317,5361
0.093317,5025
0.094317,5521
0.095317,5729
0.096317,5713
0.097316,5937
0.098316,6097
0.099319,4929
0.100317,5841
0.101316,5393
0.102317,6049
0.103316,5969
0.104316,5505
0.105315,5441
0.106319,6449
0.107316,6657
0.108368,5313
0.109324,5249
0.110318,5121
0.111317,5201
0.112317,5009
0.113317,6193
0.114317,5585
0.115317,6305
0.116315,4945
0.117317,5873
0.118317,5281
0.119318,5681
0.120318,5985
0.121317,6833
0.122319,6209
0.123316,5313
0.124317,5041
0.125317,5937
0.126317,5377
0.127319,4593
0.128317,5169
0.129316,5281
0.130317,5457
0.131318,5681
0.132317,5969
0.133319,7009
0.134319,5729
0.135317,5713
0.136317,6273
0.137317,5409
0.138317,5217
0.139317,5889
0.140318,5649
0.141317,4945
0.142318,5073
0.143318,5697
0.144317,5585
0.145317,5601
0.146316,6321
0.147317,7505
0.148317,6673
0.149316,5185
0.150317,5121
0.151317,6433
0.152317,6177
0.153317,5761
0.154317,5777
0.155316,5825
0.156317,5265
0.157317,5473
0.158318,5313
0.159318,5441
0.160316,5809
0.161317,5953
0.162315,5841
0.163319,5041
0.164317,5585
0.165319,5777
0.166317,6081
0.167317,7089
0.168319,5025
0.169318,4993
0.170316,5441
0.171315,6641
0.172366,5825
0.173334,5089
0.174325,4945
0.175320,5153
0.176317,7089
0.177317,6145
0.178319,5153
0.179317,5281
0.180316,7393
0.181318,6529
0.182319,5905
0.183317,5681
0.184317,5265
0.185316,5521
0.186317,5969
0.187317,5889
0.188317,5201
0.189318,5665
0.190317,5937
0.191317,5377
0.192315,5121
0.193318,5057
0.194316,7649
0.195317,6369
0.196317,5249
0.197317,4769
0.198316,6561
0.199319,5121
0.200319,6353
0.201318,7361
0.202317,6177
0.203317,5105
0.324892,5249
0.325540,5297
0.325946,5601
0.326333,4785
0.326709,4913
0.327150,5729
0.327523,5169
0.327893,5649
0.328264,6225
0.328664,6273
0.329037,5937
0.329418,5761
0.329795,6401
0.330318,6305
0.331315,6065
0.332319,5969
0.333317,5409
0.334317,6785
0.335315,6481
0.336316,6081
0.337316,5697
0.338319,5921
0.339319,6081
0.340317,5921
0.341318,5777
0.342316,5793
0.343317,4865
0.344319,5505
0.345315,5681
0.346319,5473
0.347317,6049
0.348319,5921
0.349314,6353
0.350318,6177
0.351319,5665
0.352316,5985
0.353319,5889
0.354318,5297
0.355319,5969
0.356316,5953
0.357318,5777
0.358319,5281
0.359315,5841
0.360319,5537
0.361317,6273
0.362319,6065
0.363317,5537
0.364337,4785
0.365322,5553
0.366317,5905
0.367319,5601
0.368317,5425
0.369317,5793
0.370317,6081
0.371318,6177
0.372316,5345
0.373317,5505
0.374318,5265
0.375317,5665
0.376318,7761
0.377317,7729
0.378317,6337
0.379317,5777
0.380316,6161
0.381318,5905
0.382319,5633
0.383317,5473
0.384315,6065
0.385318,6497
0.386317,5425
0.387316,5937
0.388318,6241
0.389315,5761
0.390317,5537
0.391317,6113
0.392317,5713
0.393316,6257
0.394317,5841
0.395317,5953
0.396318,6417
0.397316,6449
0.398319,6433
0.399316,6353
0.400319,5249
0.401317,5953
0.402317,6049
0.403318,5969
0.404318,5953
0.405316,6833
0.406317,6081
0.407317,5681
0.408318,6113
0.409318,5137
0.410318,5473
0.411318,5409
0.412318,5761
0.413315,6497
0.414317,6337
0.415317,5777
0.416318,5489
0.417316,5441
0.418318,5665
0.419315,8177
0.420317,6929
0.421317,6097
0.422319,6241
0.423317,5953
0.424317,5585
0.425317,5633
0.426319,5521
0.427318,6673
0.428330,5185
0.429324,4817
0.430318,6449
0.431317,5793
0.432317,4913
0.433315,6529
0.434319,5649
0.435316,5649
0.436317,6209
0.437318,5521
0.438317,5217
0.439316,5553
0.440315,8177
0.441318,6417
0.442317,7057
0.443317,4993
0.444317,5361
0.445316,6641
0.446317,5441
0.447317,5697
0.448317,8786
0.449318,6689
0.450319,6145
0.451319,5521
0.452316,4881
0.453316,5905
0.454317,5441
0.455318,5313
0.456317,5681
0.457318,5521
0.458317,6929
0.459316,6113
0.460317,5809
0.461318,5553
0.462317,5393
0.463317,5761
0.464318,4961
0.465317,7073
0.466317,7009
0.467317,5585
0.468316,4289
0.469317,6865
0.470317,7089
0.471316,6929
0.472318,6753
0.473317,5729
0.474319,5313
0.475317,5201
0.476317,5969
0.477317,6305
0.478316,6065
0.479317,5393
0.480317,5425
0.481315,5425
0.482317,8914
0.483318,6913
0.484316,6401
0.485318,5889
0.486316,5905
0.487317,5265
0.488316,5297
0.489317,6097
0.490317,7601
0.491316,5393
0.492329,5217
0.493323,6033
0.494317,6593
0.495315,5761
0.496317,6145
0.497317,6017
0.498317,5345
0.499319,5057
0.500318,5729
0.501318,6881
0.502319,6673
0.503317,6609
0.504317,6097
0.505316,6145
0.506318,6065
0.507319,5201
0.508317,5361
0.509316,6929
0.510317,5793
0.511317,5569
0.512317,6081
0.513317,6113
0.514319,5553
0.515315,7153
0.516317,7361
0.667880,6305
0.668677,5873
0.669235,6353
0.669769,6753
0.670300,5841
0.670894,5697
0.671420,5329
0.671948,5473
0.672477,5137
0.673019,5777
0.673550,5713
0.674073,6481
0.674604,5681
0.675131,6305
0.675665,6113
0.676193,5905
0.676724,5681
0.677316,5633
0.678317,5377
0.679319,5441
0.680315,6273
0.681319,6001
0.682318,5473
0.683319,5841
0.684340,5905
0.685321,5585
0.686317,7121
0.687317,6289
0.688319,5425
0.689316,6577
0.690316,5153
0.691317,5441
0.692319,5905
0.693318,6321
0.694319,7297
0.695318,6529
0.696315,5553
0.697316,6417
0.698317,5809
0.699317,5985
0.700318,5921
0.701316,6369
0.702318,5505
0.703317,5761
0.704317,6337
0.705318,5665
0.706318,5601
0.707318,5473
0.708318,6913
0.709317,5665
0.710316,5473
0.711318,5857
0.712318,5889
0.713318,6017
0.714318,6817
0.715317,6017
0.716318,5281
0.717317,5345
0.718319,7377
0.719316,6225
0.720317,5601
0.721319,6513
0.722316,6721
0.723317,5697
0.724319,4737
0.725316,5025
0.726319,8177
0.727317,6465
0.728318,5905
0.729317,5857
0.730318,5857
0.731317,6369
0.732318,6433
0.733318,5489
0.734317,5329
0.735317,5633
0.736316,7649
0.737318,6321
0.738317,5297
0.739318,5569
0.740318,6369
0.741315,6753
0.742317,6065
0.743319,5377
0.744319,5345
0.745318,6929
0.746319,6065
0.747317,6417
0.748338,5921
0.749322,5857
0.750320,5425
0.751317,5153
0.752318,5185
0.753318,5953
0.754317,5905
0.755316,5345
0.756316,5649
0.757319,6849
0.758316,5281
0.759317,5441
0.760319,6225
0.761317,6577
0.762317,6657
0.763316,5665
0.764319,6433
0.765319,6337
0.766317,6753
0.767318,6417
0.768317,5713
0.769318,5505
0.770317,5489
0.771317,6977
0.772315,6881
0.773318,6193
0.774318,5505
0.775317,5617
0.776316,5329
0.777319,5441
0.778317,5537
0.779316,5473
0.780319,6529
0.781318,6881
0.782320,6785
0.783317,6801
0.784317,5729
0.785317,5633
0.786318,6289
0.787313,5953
0.788319,6225
0.789317,6033
0.790315,5009
0.791318,5457
0.792318,5441
0.793317,5697
0.794317,6161
0.795317,6033
0.796319,5873
0.797316,5809
0.798316,5409
0.799319,6305
0.800316,6337
0.801316,5441
0.802319,6145
0.803318,7137
0.804319,4369
0.805317,6849
0.806317,7297
0.807315,4785
0.808319,5537
0.809318,5441
0.810317,6209
0.811316,10082
0.812332,5633
0.813323,5457
0.814318,5713
0.815317,5537
0.816318,5345
0.817317,5761
0.818319,6929
0.819316,6145
0.820318,5601
0.821317,5841
0.822315,4577
0.823317,5697
0.824319,6017
0.825317,6289
0.826317,5313
0.827319,5249
0.828316,6145
0.829315,4881
0.830318,5521
0.831318,5761
0.832317,6033
0.833317,5409
0.834317,7777
0.835317,5569
0.836318,5041
0.837318,6385
0.838317,5233
0.839318,5249
0.840318,6913
0.841317,7649
0.842317,6625
0.843318,6161
0.844317,5377
0.845317,5313
0.846317,6161
0.847317,5505
0.848316,6033
0.849316,5393
0.850317,5617
0.851317,5521
0.852318,5921
0.853317,5505
0.854318,5697
0.855317,5633
0.856317,5985
0.857315,5873
0.858319,5505
0.859319,5777
1.004196,5313
1.005137,3632
1.005853,5441
1.006540,6177
1.007221,7313
1.007976,5953
1.008657,4913
1.009339,4817
1.010017,4385
1.010718,5889
1.011401,5777
1.012082,4625
1.012772,4545
1.013457,4657
1.014143,5121
1.014825,5089
1.015511,5249
1.016213,6897
1.016904,5313
1.017588,4609
1.018271,6401
1.018960,6929
1.019655,7889
1.020350,7713
1.021039,6657
1.021730,5953
1.022419,5953
1.023318,5457
1.024316,4449
1.025316,4385
1.026318,4833
1.027319,5329
1.028318,5073
1.029318,4913
1.030317,4705
1.031317,6353
1.032318,5841
1.033313,6865
1.034316,5921
1.035318,5249
1.036317,5809
1.037320,5457
1.038317,4449
1.039318,5377
1.040319,5297
1.041315,4913
1.042318,4801
1.043318,5729
1.044317,6145
1.045317,4305
1.046317,5041
1.047319,6817
1.048317,5025
1.049317,5409
1.050318,5681
1.051316,3904
1.052317,4897
1.053316,4657
1.054319,4945
1.055318,4577
1.056316,4897
1.057317,5809
1.058319,5553
1.059316,4385
1.060318,5297
1.061318,8145
1.062318,5841
1.063318,4657
1.064317,6529
1.065318,6577
1.066316,5297
1.067318,4609
1.068335,5553
1.069325,5681
1.070318,4337
1.071320,5825
1.072319,5553
1.073319,5297
1.074317,4321
1.075319,6113
1.076317,4785
1.077317,5409
1.078317,5761
1.079317,5345
1.080317,6577
1.081317,4481
1.082316,4225
1.083317,6609
1.084317,5649
1.085317,5329
1.086318,5473
1.087318,5761
1.088315,4369
1.089317,4321
1.090317,4913
1.091316,4721
1.092318,5041
1.093317,5969
1.094319,5025
1.095314,4609
1.096319,5153
1.097317,8706
1.098318,6481
1.099317,5777
1.100317,4673
1.101317,4417
1.102317,5393
1.103318,5329
1.104317,5649
1.105317,4897
1.106316,6017
1.107318,4449
1.108317,5409
1.109316,5249
1.110319,5825
1.111317,4497
1.112317,4481
1.113319,5665
1.114318,5233
1.115318,5377
1.116317,5425
1.117318,4433
1.118317,5089
1.119317,4625
1.120316,4577
1.121317,6177
1.122318,6545
1.123316,5585
1.124317,4945
1.125317,5713
1.126316,5793
1.127316,5601
1.128315,4289
1.129319,5377
1.130317,4833
1.131319,6497
1.132333,5505
1.133325,5393
1.134323,5729
1.135317,5905
1.136317,5633
1.137320,6209
1.138318,4609
1.139317,5649
1.140317,5345
1.141317,4145
1.142317,4064
1.143317,6161
1.144319,6929
1.145315,5537
1.146315,5185
1.147315,5313
1.148318,5809
1.149317,5137
1.150319,5905
1.151318,5217
1.152316,5473
1.153318,5521
1.154316,4673
1.155318,3936
1.156316,5441
1.157317,6209
1.158317,4881
1.159316,4833
1.160316,4449
1.161317,4000
1.162317,6945
1.163315,6561
1.164317,4753
1.165316,6161
1.166316,5137
1.167316,4609
1.168318,4161
1.169317,3936
1.170318,6993
1.171317,7089
1.172317,6177
1.173317,7329
1.174319,5249
1.175317,5201
1.176317,4753
1.177319,4625
1.178317,4897
1.179319,5905
1.180316,5313
1.181318,4945
1.182316,4769
1.183319,5713
1.184316,4417
1.185317,4369
1.186317,5377
1.187317,4369
1.188317,4481
1.189317,6913
1.190320,6097
1.191318,4849
1.192316,4673
1.193317,4577
1.194319,6017
1.195318,5249
1.312076,5553
1.312601,5457
1.312871,5953
1.313114,5969
1.313358,5617
1.313616,5217
1.313852,5457
1.314092,5153
1.314336,5169
1.314597,5809
1.314836,5153
1.315317,5489
1.316315,5585
1.317319,5281
1.318318,5473
1.319317,5601
1.320316,4897
1.321315,4593
1.322319,4833
1.323317,5169
1.324335,4993
1.325326,5265
1.326321,5873
1.327317,4048
1.328317,5377
1.329319,4865
1.330317,4321
1.331316,6017
1.332317,5969
1.333318,4369
1.334318,6817
1.335315,4753
1.336317,5649
1.337316,5985
1.338316,4945
1.339318,6129
1.340315,6737
1.341317,4753
1.342318,4369
1.343317,4529
1.344317,5617
1.345317,5361
1.346319,5233
1.347318,4801
1.348317,4689
1.349317,5425
1.350318,5537
1.351319,5633
1.352315,5457
1.353316,4353
1.354318,5041
1.355318,5121
1.356317,5169
1.357317,4689
1.358316,4657
1.359317,5201
1.360317,5729
1.361316,4833
1.362317,5585
1.363315,5985
1.364318,6097
1.365318,4849
1.366318,6401
1.367317,4577
1.368317,5457
1.369317,4577
1.370317,4993
1.371318,4641
1.372319,5201
1.373317,4945
1.374316,5505
1.375318,4945
1.376317,4881
1.377318,5233
1.378318,5233
1.379317,5169
1.380317,5105
1.381316,5921
1.382318,5521
1.383317,4897
1.384317,4561
1.385317,4897
1.386318,6209
1.387318,5777
1.388334,6625
1.389323,7681
1.390318,4641
1.391318,4417
1.392316,5201
1.393318,5345
1.394315,4705
1.395319,4577
1.396318,5089
1.397317,5537
1.398318,6417
1.399316,4833
1.400316,5729
1.401318,4881
1.402318,5633
1.403319,5569
1.404319,5041
1.405317,5329
1.406315,4865
1.407318,5073
1.408318,4689
1.409316,4689
1.410318,5201
1.411319,5297
1.412317,6593
1.413316,6161
1.414316,5473
1.415317,4177
1.416315,5729
1.417318,4929
1.418318,5249
1.419317,4897
1.420316,4881
1.421317,4385
1.422318,5089
1.423319,5553
1.424317,4545
1.425316,5089
1.426317,5505
1.427316,5505
1.428318,6097
1.429317,4769
1.430317,5217
1.431316,5633
1.432317,5537
1.433317,4769
1.434318,4929
1.435317,5569
1.436319,5793
1.437317,4513
1.438317,6161
1.439318,5985
1.440317,5809
1.441318,5777
1.442317,5185
1.443317,4449
1.444316,5153
1.445318,4529
1.446315,5393
1.447317,4561
1.448318,4385
1.449317,4929
1.450317,5585
1.451317,4337
1.452356,8194
1.453321,6273
1.454319,5633
1.455319,5889
1.456318,5121
1.457318,5025
1.458317,4177
1.459319,5393
1.460317,5553
1.461318,4737
1.462318,4561
1.463317,4577
1.464317,5537
1.465317,4833
1.466317,4193
1.467317,4945
1.468317,5633
1.469318,5249
1.470317,4993
1.471319,6001
1.472319,4993
1.473318,4929
1.474315,4769
1.475316,5729
1.476316,5345
1.477319,4641
1.478318,5057
1.479318,5089
1.480317,4417
1.481317,4385
1.482317,4673
1.483316,4737
1.484317,6609
1.485317,5457
1.486317,4929
1.487317,4817
1.488317,5137
1.489318,4577
1.490318,5185
1.491317,5137
1.492317,5425
1.493317,5185
1.494316,5649
1.495316,5585
1.496317,4913
1.497318,5345
1.498315,6033
1.499317,5425
1.500317,5009
1.501318,4865
1.502315,5345
1.503317,5649
1.661434,6273
1.662075,5585
1.662495,5073
1.662891,4865
1.663288,5521
1.663743,4897
1.664128,4785
1.664526,5713
1.664915,5505
1.665326,6641
1.665724,5537
1.666118,6417
1.666516,5537
1.666911,5361
1.667314,5153
1.668318,5249
1.669315,4529
1.670318,4705
1.671317,6465
1.672317,6305
1.673317,5169
1.674318,4513
1.675317,4161
1.676318,4577
1.677315,6353
1.678316,6417
1.679318,4625
1.680316,4929
1.681317,5425
1.682318,5569
1.683317,6353
1.684317,6129
1.685317,4609
1.686316,4561
1.687317,6065
1.688319,5809
1.689318,5425
1.690318,4545
1.691316,4097
1.692316,6593
1.693319,5873
1.694318,5089
1.695318,4993
1.696319,4945
1.697318,5489
1.698317,5841
1.699317,5057
1.700316,5729
1.701318,5281
1.702316,5681
1.703318,5681
1.704317,5297
1.705317,4689
1.706316,4641
1.707316,4705
1.708340,6817
1.709324,5409
1.710319,5409
1.711316,4401
1.712317,4129
1.713318,5729
1.714318,7041
1.715315,4577
1.716319,5057
1.717317,4753
1.718319,6081
1.719317,4657
1.720317,6881
1.721316,5761
1.722317,5457
1.723318,5217
1.724316,5105
1.725317,6225
1.726318,5169
1.727317,4673
1.728317,5121
1.729317,5377
1.730317,5457
1.731317,5025
1.732319,4705
1.733317,5201
1.734320,4097
1.735316,4641
1.736316,4417
1.737317,6481
1.738316,5329
1.739319,6353
1.740318,4913
1.741317,5345
1.742319,4433
1.743317,6593
1.744315,5889
1.745317,4673
1.746316,4833
1.747319,5345
1.748319,6065
1.749318,5393
1.750315,4977
1.751318,4577
1.752316,4481
1.753320,4913
1.754317,5329
1.755317,4865
1.756318,4705
1.757316,4529
1.758319,4561
1.759315,4625
1.760316,5553
1.761316,5281
1.762319,6561
1.763317,6017
1.764319,5521
1.765319,5713
1.766317,5697
1.767319,5857
1.768316,5633
1.769316,5521
1.770317,4881
1.771317,4865
1.772344,5153
1.773326,5265
1.774323,4705
1.775320,5025
1.776318,5153
1.777317,4817
1.778318,6049
1.779318,4689
1.780317,5313
1.781316,5217
1.782318,5441
1.783315,6209
1.784317,4561
1.785317,5313
1.786317,5697
1.787315,5441
1.788316,5585
1.789316,6433
1.790316,5713
1.791317,5345
1.792317,4577
1.793318,4321
1.794315,4817
1.795316,7201
1.796317,5169
1.797316,4641
1.798318,4225
1.799320,6033
1.800314,6305
1.801317,4369
1.802317,4385
1.803317,5905
1.804317,4801
1.805317,6289
1.806317,5633
1.807316,5425
1.808318,6529
1.809316,5057
1.810319,5265
1.811318,4961
1.812316,5377
1.813316,4929
1.814317,7361
1.815318,7137
1.816317,5905
1.817318,5393
1.818317,4929
1.819319,4433
1.820318,6001
1.821318,4385
1.822318,5201
1.823318,4625
1.824317,4897
1.825318,4817
1.826320,4433
1.827317,4785
1.828316,5553
1.829318,5553
1.830317,5713
1.831318,5761
1.832319,5313
1.833318,5297
1.834317,4833
1.835319,5185
1.836336,5889
1.837324,5777
1.838317,5201
1.839316,4913
1.840316,5057
1.841317,5665
1.842319,4545
1.843317,4561
1.844318,5345
1.845318,4529
1.846318,4337
1.847315,5281
1.848316,4945
1.849317,5697
1.850318,5601
1.851316,4881
1.852316,4737
2.005348,5681
2.006133,5041
2.006712,5281
2.007259,5857
2.007810,5889
2.008426,5249
2.008980,5809
2.009527,4737
2.010069,5185
2.010634,5441
2.011179,6209
2.011730,5473
2.012274,4145
2.012825,4385
2.013380,5585
2.013929,5633
2.014485,6273
2.015063,5569
2.015618,4945
2.016317,5569
2.017319,5169
2.018316,5009
2.019318,5649
2.020316,6273
2.021319,5185
2.022318,5409
2.023317,5297
2.024317,4769
2.025319,4401
2.026317,5137
2.027317,5905
2.028335,6337
2.029325,5169
2.030317,5937
2.031317,5633
2.032319,5249
2.033318,4833
2.034316,5249
2.035319,5249
2.036318,5841
2.037319,5105
2.038316,5505
2.039317,5777
2.040317,4593
2.041317,4817
2.042318,5249
2.043318,5457
2.044318,5569
2.045316,5585
2.046317,5281
2.047316,4689
2.048318,4801
2.049316,5585
2.050318,5905
2.051315,6449
2.052318,6833
2.053317,5313
2.054318,5393
2.055317,5041
2.056319,4641
2.057319,4945
2.058317,4849
2.059317,4865
2.060317,4641
2.061319,5249
2.062318,6193
2.063317,5457
2.064317,5889
2.065315,4817
2.066318,5473
2.067316,7505
2.068317,6593
2.069317,4385
2.070317,4817
2.071317,4577
2.072319,7137
2.073319,5681
2.074318,5729
2.075317,5809
2.076316,4897
2.077318,4849
2.078317,4881
2.079317,4513
2.080317,4705
2.081316,5393
2.082316,4897
2.083317,5505
2.084317,6353
2.085317,5345
2.086316,5201
2.087316,5169
2.088317,5233
2.089316,5073
2.090318,5313
2.091317,4641
2.092338,5729
2.093321,4385
2.094317,4545
2.095314,5057
2.096319,6593
2.097317,7313
2.098317,6545
2.099318,5313
2.100317,5873
2.101316,4689
2.102315,5681
2.103318,5857
2.104319,4673
2.105319,6609
2.106316,5425
2.107316,6241
2.108317,5057
2.109318,5313
2.110318,4225
2.111315,5073
2.112316,4817
2.113319,4737
2.114317,5025
2.115318,6337
2.116318,6177
2.117318,5297
2.118319,4433
2.119317,6609
2.120318,5521
2.121317,6817
2.122316,5377
2.123318,5665
2.124317,4865
2.125316,4657
2.126318,4449
2.127317,5201
2.128318,5137
2.129317,5713
2.130317,6417
2.131319,5201
2.132316,5313
2.133318,6833
2.134315,5841
2.135317,5201
2.136318,6433
2.137318,5249
2.138319,4881
2.139317,4593
2.140316,5169
2.141318,6033
2.142316,4961
2.143316,4753
2.144316,5473
2.145318,5649
2.146316,5169
2.147317,5793
2.148315,6097
2.149318,5553
2.150316,5025
2.151318,4609
2.152320,5041
2.153319,6209
2.154316,5025
2.155318,5425
2.156356,6225
2.157322,5649
2.158319,5729
2.159316,5553
2.160316,5313
2.161317,5265
2.162317,5009
2.163319,4865
2.164316,6113
2.165320,5137
2.166315,4577
2.167317,5809
2.168316,6049
2.169318,5313
2.170317,4913
2.171315,5761
2.172317,5073
2.173319,5057
2.174317,5009
2.175319,4785
2.176316,5889
2.177318,5745
2.178317,5041
2.179317,4753
2.180317,6241
2.181315,6097
2.182317,5697
2.183317,4929
2.184317,6049
2.185318,5009
2.186318,5137
2.187317,6177
2.188316,5201
2.189318,5633
2.190317,4529
2.191317,8161
2.192315,7777
2.193316,5665
2.194317,5377
2.195315,5281
2.196318,5457
2.302752,6145
2.303722,5025
2.304461,5265
2.305170,6513
2.305881,6065
2.306659,6161
2.307365,4881
2.308070,4769
2.308775,5169
2.309506,5857
2.310207,5793
2.310913,5201
2.311622,5761
2.312329,6017
2.313036,6465
2.313748,5345
2.314455,4048
2.315182,4449
2.315894,4817
2.316610,6529
2.317330,4737
2.318041,4977
2.318757,6801
2.319477,4705
2.320193,4657
2.320909,5537
2.321627,8113
2.322345,6561
2.323319,5169
2.324317,5777
2.325318,4993
2.326317,4961
2.327317,6721
2.328318,7601
2.329317,5409
2.330316,5361
2.331317,5953
2.332317,5377
2.333318,5313
2.334318,5441
2.335317,5217
2.336317,5681
2.337316,4817
2.338317,4833
2.339318,6465
2.340317,6593
2.341317,5009
2.342317,4993
2.343318,5169
2.344318,5601
2.345317,5041
2.346315,5073
2.347318,5393
2.348360,6257
2.349320,4657
2.350317,5281
2.351317,5553
2.352318,5153
2.353318,6193
2.354316,5057
2.355315,5985
2.356317,5905
2.357319,4785
2.358317,5713
2.359318,5697
2.360317,5217
2.361318,4945
2.362316,5585
2.363316,5041
2.364317,5233
2.365317,5345
2.366317,4897
2.367317,5057
2.368316,4785
2.369316,7441
2.370317,5713
2.371316,5393
2.372317,6225
2.373317,5409
2.374318,4737
2.375319,5137
2.376316,4881
2.377316,6033
2.378317,5137
2.379317,4785
2.380317,5137
2.381317,4993
2.382315,5889
2.383318,5249
2.384317,5377
2.385317,5297
2.386319,4929
2.387318,5873
2.388317,6017
2.389316,5729
2.390317,4657
2.391317,5489
2.392317,5905
2.393317,6401
2.394318,5089
2.395316,6977
2.396317,5761
2.397318,4993
2.398317,5185
2.399319,5185
2.400317,5217
2.401318,5009
2.402317,5233
2.403317,4833
2.404316,6097
2.405317,6417
2.406315,6225
2.407319,5249
2.408318,5681
2.409317,5841
2.410318,5169
2.411319,5201
2.412359,5921
2.413322,4961
2.414319,5777
2.415319,5249
2.416319,5505
2.417315,5281
2.418317,5153
2.419317,6033
2.420319,5905
2.421316,5393
2.422317,5377
2.423319,6017
2.424317,6017
2.425316,6305
2.426317,5185
2.427319,5425
2.428317,5313
2.429315,5585
2.430316,5649
2.431317,6145
2.432316,5137
2.433318,5377
2.434315,5953
2.435318,5057
2.436317,5505
2.437316,5201
2.438316,4897
2.439315,5393
2.440317,5473
2.441318,4945
2.442316,4769
2.443315,5041
2.444319,6305
2.445316,5793
2.446317,6193
2.447317,5569
2.448318,4881
2.449316,6305
2.450315,5761
2.451317,4961
2.461884,6609
2.462109,5777
2.462319,5217
2.462527,5249
2.462731,5313
2.462937,6065
2.463141,6305
2.463355,5345
2.463566,5473
2.463782,5217
2.464319,4897
2.465316,4769
2.466319,5201
2.467317,5025
2.468316,6241
2.469318,5345
2.470319,6849
2.471314,5793
2.472317,5041
2.473318,4913
2.474317,6961
2.475317,5073
2.476371,4801
2.477328,4993
2.478320,5889
2.479317,5505
2.480319,4993
2.481317,6785
2.482316,6081
2.483318,5297
2.484318,5409
2.485318,4833
2.486315,5553
2.487316,5393
2.488318,5425
2.489317,5521
2.490319,4833
2.491318,5009
2.492315,6433
2.493317,7169
2.494317,6353
2.495318,5713
2.496317,5313
2.651652,5809
2.652176,6177
2.652505,6289
2.652795,6225
2.653079,6065
2.653430,5425
2.653717,5473
2.654007,4353
2.654301,4705
2.654606,4769
2.654896,5153
2.655318,5249
2.656317,5537
2.657316,5441
2.658317,5521
2.659318,5937
2.660316,6177
2.661318,5505
2.662316,5425
2.663315,5121
2.664318,5249
2.665320,5217
2.666316,6577
2.667318,5121
2.668342,5569
2.669326,7649
2.670322,6081
2.671318,5153
2.672316,5473
2.673319,5217
2.674317,6337
2.675318,5905
2.676319,6481
2.677318,5185
2.678316,5009
2.679316,5281
2.680316,5905
2.681317,5569
2.682317,5073
2.683318,7457
2.684317,5905
2.685318,4945
2.686320,5697
2.687316,5841
2.688317,5217
2.689318,5953
2.690319,5057
2.691316,5921
2.692315,6033
2.693319,5217
2.694319,5217
2.695317,5313
2.696317,4897
2.697318,4865
2.698319,5249
2.699318,6545
2.700319,5665
2.701317,5249
2.702316,6049
2.703319,6401
2.704316,5937
2.705318,7425
2.706317,6225
2.707317,5217
2.708316,6081
2.709317,5393
2.710318,5985
2.711317,5425
2.712318,5409
2.713317,5953
2.714317,6225
2.715318,5281
2.716316,5665
2.717319,4961
2.718317,5265
2.719318,5681
2.720317,5633
2.721319,5217
2.722318,5249
2.723318,5089
2.724315,6081
2.725317,5793
2.726319,6177
2.727318,5441
2.728317,6721
2.729317,5473
2.730316,5313
2.731317,5313
2.732390,6113
2.733324,7985
2.734321,6113
2.735320,5505
2.736317,6033
2.737317,5889
2.738318,5361
2.739317,5297
2.740315,4849
2.741318,5953
2.742317,5073
2.743316,5585
2.744318,6241
2.745317,5793
2.746315,6225
2.747317,6209
2.748319,5937
2.749318,5217
2.750317,5537
2.751317,5297
2.752317,5409
2.753317,5201
2.754316,4897
2.755317,5809
2.756317,7569
2.757317,6193
2.758316,6033
2.759317,5505
2.760317,5201
2.761319,5537
2.762316,5201
2.763317,5697
2.764319,6097
2.765318,5809
2.766314,6209
2.767318,5441
2.768316,4993
2.769317,5777
2.770317,6561
2.771319,5313
2.772319,5729
2.773317,5857
2.774317,6705
2.775317,5889
2.776317,5633
2.777318,6177
2.778318,6289
2.779316,5841
2.780317,5057
2.781317,7041
2.782319,5441
2.783317,5393
2.784319,6225
2.785318,5665
2.786319,6209
2.787316,5473
2.788318,6449
2.789319,5313
2.790316,5537
2.791319,5265
2.792317,5569
2.793317,5553
2.794316,5377
2.795318,6145
2.796351,6497
2.797333,5777
2.798320,5809
2.799319,5377
2.800318,5649
2.801317,5569
2.802315,5457
2.803316,5729
2.804318,5921
2.805319,5201
2.806317,6609
2.807319,6545
2.808315,5569
2.809316,5665
2.810317,6113
2.811318,5457
2.812316,6913
2.813319,6977
2.814315,5601
2.815317,5425
2.816319,5793
2.817319,5425
2.818317,5377
2.819318,6065
2.820316,5889
2.821319,5009
2.822317,5249
2.823317,5633
2.824318,5601
2.825316,5601
2.826317,6241
2.827319,6353
2.828316,6145
2.829317,5281
2.830319,4929
2.831317,6529
2.832318,6113
2.833316,5217
2.834319,4817
2.835316,6721
2.836318,6577
2.837317,5665
2.838315,5425
2.839317,5969
2.840318,5329
2.841319,5073
2.842318,5393
2.843319,6705
2.998958,5953
2.999671,5969
3.000134,4225
3.000586,4417
3.001030,4689
3.001535,4657
3.001972,5249
3.002415,5841
3.002851,5889
3.003313,6689
3.003755,5377
3.004192,6433
3.004641,6049
3.005079,5249
3.005524,5809
3.006316,6353
3.007318,5313
3.008317,5409
3.009318,5985
3.010317,5361
3.011317,6225
3.012317,6241
3.013316,7185
3.014317,5889
3.015317,6241
3.016317,5985
3.017318,5457
3.018317,5505
3.019316,6689
3.020315,5681
3.021319,5185
3.022316,7873
3.023316,6913
3.024317,4865
3.025317,5537
3.026317,5809
3.027315,6081
3.028317,5409
3.029318,6433
3.030317,6289
3.031317,5649
3.032316,6273
3.033318,6097
3.034318,5073
3.035317,5713
3.036318,5489
3.037315,6353
3.038317,5201
3.039315,4897
3.040315,7377
3.041316,6721
3.042317,5377
3.043318,6081
3.044318,5393
3.045317,9554
3.046318,6161
3.047316,6593
3.048315,6593
3.049316,5713
3.050315,7121
3.051317,5265
3.052338,4289
3.053317,6113
3.054317,5761
3.055317,5121
3.056318,6177
3.057315,6305
3.058316,5905
3.059317,6193
3.060317,5825
3.061317,6193
3.062317,5505
3.063318,6529
3.064317,6193
3.065318,5297
3.066318,5729
3.067316,6289
3.068318,5329
3.069319,5841
3.070318,6529
3.071317,5889
3.072319,5713
3.073316,5345
3.074316,5265
3.075316,6561
3.076317,5137
3.077317,7121
3.078318,5889
3.079316,5745
3.080318,5889
3.081317,6913
3.082317,6321
3.083315,6577
3.084318,5585
3.085319,5185
3.086319,6161
3.087318,5809
3.088317,6145
3.089319,5681
3.090317,5457
3.091316,5073
3.092318,4833
3.093317,6161
3.094317,7393
3.095317,7073
3.096318,5777
3.097315,5457
3.098316,5713
3.099317,6177
3.100317,6609
3.101319,5857
3.102316,5649
3.103317,5617
3.104317,5857
3.105317,5969
3.106317,5921
3.107318,5297
3.108318,5681
3.109316,6721
3.110317,5329
3.111320,6449
3.112316,7937
3.113315,5569
3.114317,6113
3.115317,6145
3.116329,4913
3.117326,5057
3.118320,5361
3.119321,5665
3.120317,5825
3.121317,6193
3.122317,6321
3.123317,5681
3.124317,5345
3.125318,5825
3.126319,5409
3.127317,5937
3.128318,6513
3.129318,5729
3.130319,5665
3.131317,6337
3.132315,7697
3.133318,5713
3.134317,5457
3.135316,6353
3.136317,6945
3.137317,5553
3.138316,6433
3.139316,6945
3.140319,5217
3.141318,5537
3.142317,6353
3.143318,6225
3.144317,5713
3.145315,5393
3.146317,5585
3.147318,5713
3.148317,5793
3.149317,6385
3.150318,6817
3.151317,5793
3.152317,6145
3.153317,6065
3.154317,5697
3.155317,6017
3.156316,4705
3.157317,6657
3.158318,6449
3.159316,5441
3.160316,5137
3.161315,6961
3.162318,6257
3.163319,6081
3.164317,5665
3.165316,5937
3.166319,5713
3.167315,6177
3.168318,5233
3.169317,5937
3.170316,7745
3.171316,6369
3.172318,5153
3.173319,6241
3.174317,5569
3.175315,6225
3.176317,5281
3.177315,5297
3.178317,6225
3.179319,6417
3.180338,5185
3.181325,6065
3.182322,5905
3.183319,5953
3.184318,5905
3.185319,6785
3.186317,6449
3.187317,5713
3.188316,5297
3.189317,6401
3.190319,5505
3.297236,5841
3.298109,4849
3.298740,7009
3.299340,6305
3.299931,6273
3.300593,5361
3.301183,5249
3.301781,4689
3.302381,4193
3.302995,5377
3.303590,4977
3.304182,5793
3.304783,5537
3.305384,4545
3.305978,6929
3.306576,7665
3.307173,7041
3.307796,5521
3.308520,5425
3.309125,4273
3.309733,4257
3.310339,5265
3.311317,6481
3.312317,6049
3.313317,5585
3.314317,6193
3.315315,5441
3.316315,5137
3.317317,6369
3.318317,5953
3.319319,7121
3.320319,6241
3.321315,4801
3.322317,5393
3.323316,5985
3.324319,6097
3.325317,5873
3.326316,5505
3.327317,6113
3.328317,6049
3.329319,5953
3.330316,5921
3.331316,5601
3.332317,4497
3.333315,5425
3.334316,5857
3.335319,6017
3.336317,6017
3.337317,5457
3.338318,5841
3.339315,5281
3.340317,5089
3.341319,7377
3.342319,6881
3.343317,6209
3.344317,5921
3.345317,5825
3.346319,5665
3.347317,5713
3.348317,6193
3.349317,5921
3.350316,5409
3.351317,5889
3.352317,5665
3.353317,7777
3.354316,6449
3.355316,5425
3.356317,5329
3.357318,6065
3.358317,5713
3.359319,6049
3.360316,5713
3.361319,5841
3.362318,5841
3.363317,5713
3.364317,5537
3.365319,6593
3.366318,5937
3.367315,5665
3.368316,5441
3.369316,6225
3.370315,4897
3.371315,5761
3.372336,4673
3.373326,4881
3.374318,5633
3.375319,5697
3.376317,7745
3.377317,5969
3.378318,6561
3.379315,5105
3.380317,4529
3.381320,5441
3.382316,4833
3.383318,6721
3.384319,5265
3.385319,6305
3.386317,5937
3.387315,4881
3.388318,6289
3.389316,7329
3.390317,5297
3.391317,4993
3.392317,5153
3.393317,5953
3.394317,6081
3.395316,6161
3.396316,4529
3.397317,6337
3.398318,6417
3.399315,5025
3.400318,6145
3.401318,5649
3.402316,5425
3.403317,5809
3.404317,5425
3.405318,5457
3.406317,7201
3.407317,6657
3.408316,4657
3.409318,5537
3.410319,6241
3.411317,6833
3.412318,5473
3.413316,6785
3.414318,5297
3.415316,4785
3.416318,5809
3.417317,6161
3.418317,6609
3.419317,5857
3.420317,5681
3.421316,4353
3.422317,7073
3.423318,5937
3.424319,6305
3.425315,4529
3.426317,4705
3.427317,5521
3.428317,6721
3.429317,6049
3.430318,6449
3.431318,6097
3.432317,5521
3.433317,5809
3.434317,6033
3.435318,4961
3.436329,5329
3.437322,5969
3.438318,5393
3.439317,5873
3.440319,5761
3.441314,4529
3.442317,5281
3.443317,6577
3.444318,6337
3.445316,5313
3.446319,5969
3.447318,5937
3.448318,5457
3.449317,5809
3.450317,4705
3.451318,7217
3.452319,7505
3.453316,4433
3.454317,4545
3.455316,4641
3.456316,5425
3.457319,6177
3.458315,4817
3.459317,6273
3.460316,4753
3.461317,5057
3.462318,6609
3.463316,5297
3.464319,5793
3.465317,5121
3.466317,5121
3.467315,5697
3.468316,4609
3.469317,5681
3.470319,5985
3.471318,5649
3.472318,6049
3.473317,5857
3.474318,5809
3.475318,6065
3.476317,5393
3.477318,6177
3.478317,4753
3.479318,5137
3.480318,5441
3.481317,6305
3.482316,5889
3.483317,4289
3.484318,5265
3.485317,6225
3.486315,7601
3.487316,5761
3.488318,6065
3.642953,4801
3.643966,6033
3.644752,5969
3.645516,5329
3.646263,6369
3.647092,5089
3.647847,6449
3.648606,5377
3.649361,4529
3.650135,3472
3.650900,6961
3.651661,5361
3.652422,4689
3.653173,7185
3.653934,5425
3.654693,5089
3.655456,4929
3.656237,4833
3.657007,4929
3.657771,5505
3.658538,5377
3.659301,5425
3.660062,4433
3.660826,5361
3.661591,6321
3.662356,5425
3.663120,4753
3.663888,4769
3.664661,4705
3.665430,5505
3.666199,7009
3.666970,6401
3.667742,5329
3.668553,5665
3.669323,5713
3.670317,4513
3.671318,5281
3.672316,4929
3.673316,4801
3.674318,5025
3.675319,5425
3.676317,3872
3.677317,6017
3.678317,6641
3.679319,5201
3.680317,5825
3.681318,6097
3.682318,5185
3.683317,4705
3.684319,5041
3.685318,4385
3.686317,5025
3.687319,4865
3.688317,4641
3.689319,4417
3.690319,6625
3.691318,5937
3.692317,5185
3.693335,4689
3.694322,5537
3.695321,7121
3.696317,4945
3.697318,5057
3.698316,4897
3.699316,6289
3.709592,4881
3.709816,5073
3.710023,5889
3.710226,6097
3.710432,5233
3.710640,5425
3.710851,6161
3.711059,5601
3.711273,6465
3.711490,4769
3.712318,4769
3.713317,4657
3.714318,4369
3.715316,6737
3.716318,5297
3.717317,5041
3.718317,4337
3.719318,7137
3.720317,5521
3.721318,4321
3.722317,5473
3.723319,4577
3.724320,5009
3.725316,4353
3.726317,5377
3.727317,5825
3.728317,5633
3.729317,5681
3.730319,6049
3.731317,4657
3.732317,5249
3.733318,4913
3.734316,4225
3.735316,6081
3.736319,5089
3.737316,4433
3.738317,4753
3.739317,5121
3.740319,5217
3.741317,4737
3.742319,6257
3.743319,4417
3.744320,5249
3.745318,8177
3.746317,5457
3.747315,5505
3.748318,4769
3.749316,4881
3.750319,4625
3.751317,4865
3.752316,4769
3.753316,6321
3.754316,5457
3.755317,5521
3.756340,5169
3.757324,5857
3.758319,4545
3.759319,4577
3.760316,4401
3.761316,6017
3.762317,6177
3.763315,6577
3.764318,4865
3.765316,5329
3.766316,5761
3.767315,4401
3.768318,4705
3.769317,6081
3.770318,4897
3.771317,4241
3.772316,4881
3.773318,5281
3.774317,5457
3.775317,4609
3.776317,5425
3.777318,4961
3.778317,4641
3.779318,5281
3.780317,4881
3.781317,5201
3.782318,5185
3.783318,4257
3.784320,5505
3.785317,5665
3.786319,6273
3.787319,5249
3.788317,6273
3.789317,6049
3.790317,5393
3.791318,4305
3.792317,5041
3.793319,4353
3.794316,4657
3.795317,5361
3.796318,5425
3.797317,6881
3.798317,5297
3.799318,4881
3.800318,4545
3.801318,4145
3.802317,5889
3.803315,6321
3.804317,5457
3.805317,5889
3.806317,6161
3.807316,4769
3.808316,4641
3.809319,4369
3.810319,4273
3.811317,4369
3.812316,5041
3.813317,4801
3.814318,4321
3.815315,5329
3.816315,6049
3.817318,6449
3.818317,5921
3.819316,5217
3.820330,6481
3.821319,4817
3.822319,4161
3.823317,5649
3.824318,5201
3.825314,5521
3.826316,4961
3.827317,4609
3.828318,5873
3.829316,4225
3.830316,4817
3.831315,6273
3.832317,5601
3.833319,4993
3.834317,4129
3.835317,5249
3.836316,5153
3.987705,5425
3.988307,6049
3.988672,5137
3.989014,4929
3.989356,5441
3.989761,5201
3.990101,5233
3.990442,4449
3.990777,5409
3.991129,4897
3.991474,6097
3.991810,5793
3.992316,6225
3.993319,4785
3.994316,4385
3.995317,5297
3.996317,5585
3.997317,4529
3.998317,4609
3.999317,5793
4.000317,5457
4.001317,5185
4.002316,5361
4.003318,5553
4.004317,5249
4.005317,4497
4.006317,4945
4.007318,6097
4.008316,5057
4.009317,4385
4.010318,4961
4.011317,4689
4.012340,4753
4.013325,6161
4.014320,5281
4.015318,4289
4.016319,6065
4.017319,5297
4.018317,4401
4.019314,4913
4.020317,4961
4.021316,6177
4.022317,5953
4.023318,5073
4.024319,5249
4.025319,5249
4.026319,4753
4.027317,5601
4.028317,4369
4.029317,5729
4.030317,6017
4.031316,4721
4.032317,5153
4.033317,6081
4.034316,4977
4.035315,4929
4.036319,5473
4.037318,4289
4.038317,4561
4.039317,5025
4.040319,4929
4.041317,4753
4.042319,5457
4.043316,4417
4.044317,7441
4.045318,5793
4.046316,4369
4.047314,5025
4.048315,5729
4.049317,5217
4.050315,4673
4.051320,4353
4.052317,6193
4.053319,4577
4.054316,5169
4.055318,7281
4.056317,4689
4.057318,7313
4.058315,4769
4.059317,4641
4.060317,4993
4.061317,5297
4.062315,4705
4.063316,4769
4.064317,5409
4.065317,5585
4.066315,5041
4.067318,4833
4.068317,4913
4.069317,6785
4.070318,4753
4.071317,4289
4.072317,5089
4.073318,5841
4.074318,5313
4.075317,4913
4.076335,5105
4.077321,4497
4.078317,6993
4.079316,5713
4.080317,5089
4.081317,4721
4.082317,4273
4.083318,4881
4.084319,5457
4.085317,4801
4.086317,4625
4.087319,4753
4.088317,5505
4.089317,5057
4.090317,5233
4.091319,5873
4.092316,5761
4.093319,4929
4.094319,5153
4.095316,5041
4.096316,5201
4.097317,4865
4.098316,4801
4.099319,5265
4.100317,6113
4.101317,4545
4.102317,5057
4.103317,5825
4.104317,4689
4.105316,5345
4.106316,5809
4.107317,5265
4.108317,4897
4.109315,5217
4.110317,4769
4.111317,4817
4.112318,5089
4.113318,5425
4.114318,4225
4.115317,4241
4.116318,6337
4.117319,5361
4.118320,7473
4.119316,5457
4.120317,4177
4.121317,3968
4.122317,6097
4.123318,6033
4.124318,5185
4.125319,5265
4.126316,4353
4.127317,6529
4.128317,5681
4.129317,4481
4.130318,4817
4.131315,4897
4.132315,5041
4.133317,5089
4.134316,4881
4.135319,5937
4.136318,5745
4.137316,4513
4.138315,5521
4.139317,5249
4.140334,5777
4.141321,4769
4.142317,4529
4.143317,4609
4.144316,5297
4.145317,5121
4.146315,5217
4.147317,5729
4.148317,6705
4.149316,6577
4.150317,6209
4.151317,4529
4.152317,4913
4.153316,4673
4.154316,4993
4.155317,4257
4.156317,4897
4.157318,4161
4.158318,4641
4.159319,7457
4.160318,5937
4.161317,5793
4.162318,4769
4.163318,5137
4.164318,5857
4.165318,5569
4.166317,5617
4.167314,5121
4.168317,4593
4.169317,4993
4.170317,5825
4.171319,4785
4.172317,4945
4.173315,4289
4.174317,4881
4.175316,6081
4.176319,4865
4.177316,5265
4.178317,5937
4.179316,4785
4.289130,4673
4.289891,4641
4.290428,5457
4.290924,5425
4.291422,5953
4.291974,5073
4.292470,5201
4.292957,5793
4.293450,5313
4.293955,5825
4.294450,5905
4.294941,5537
4.295437,5265
4.295931,5345
4.296428,5665
4.296921,4977
4.297424,4689
4.298317,5297
4.299317,4689
4.300318,5793
4.301317,4561
4.302318,5377
4.303317,6881
4.304317,4945
4.305318,4929
4.306316,5265
4.307316,5585
4.308317,5329
4.309319,4929
4.310317,4769
4.311315,5393
4.312319,4161
4.313318,5825
4.314318,5217
4.315316,4673
4.316318,5601
4.317316,5825
4.318317,5137
4.319317,6369
4.320317,5041
4.321316,4609
4.322317,7697
4.323317,4641
4.324318,5473
4.325319,5425
4.326317,5025
4.327317,4577
4.328317,5841
4.329317,4849
4.330316,4625
4.331317,4593
4.332338,4913
4.333329,6881
4.334324,5345
4.335320,5121
4.336317,4353
4.337317,5793
4.338317,4769
4.339317,6369
4.340317,6417
4.341316,4929
4.342317,4481
4.343319,4705
4.344316,5585
4.345318,6321
4.346317,5793
4.347317,4785
4.348316,4817
4.349318,4849
4.350317,5601
4.351315,4689
4.352319,5345
4.353318,4737
4.354318,4241
4.355315,4993
4.356317,6113
4.357319,4433
4.358317,5121
4.359317,4961
4.360319,4625
4.361315,6689
4.362317,4865
4.363317,5217
4.364315,6017
4.365318,4145
4.366317,5681
4.367317,5873
4.368317,5265
4.369318,4929
4.370317,4993
4.371318,5329
4.372318,5633
4.373317,5377
4.374318,4865
4.375316,4433
4.376318,4465
4.377317,4289
4.378317,5601
4.379320,6145
4.380317,5697
4.381319,5185
4.382317,5633
4.383317,5169
4.384318,4337
4.385315,5025
4.386316,7313
4.387320,5137
4.388316,6049
4.389317,5473
4.390317,4625
4.391317,5009
4.392319,5521
4.393317,5057
4.394317,5649
4.395315,5265
4.396333,5985
4.397326,5729
4.398323,4801
4.399317,4961
4.400319,4657
4.401316,4241
4.402318,5377
4.403315,5329
4.404316,5281
4.405317,4401
4.406317,4897
4.407317,6689
4.408317,5777
4.409316,4673
4.410318,5089
4.411316,5569
4.412317,5041
4.413317,5713
4.414316,5601
4.415319,4401
4.416317,4545
4.417315,5585
4.418317,5377
4.419318,4785
4.420315,5537
4.421318,4513
4.422316,4385
4.423319,5185
4.424318,4881
4.425317,4769
4.426316,4785
4.427317,5169
4.428318,5825
4.429317,6273
4.430318,4929
4.431318,4961
4.432317,4273
4.433317,5521
4.434319,5921
4.435316,5457
4.436317,5713
4.437318,5553
4.438315,4753
4.439317,6033
4.440319,4865
4.441315,4849
4.442318,4769
4.443317,4417
4.444317,6161
4.445319,5649
4.446318,4881
4.447317,5345
4.448317,6353
4.449317,5649
4.450319,4561
4.451317,4737
4.452317,5569
4.453319,4769
4.454319,6209
4.455318,6321
4.456318,4481
4.457317,4561
4.458315,6609
4.459317,6385
4.460333,5425
4.461324,4929
4.462320,5153
4.463317,5649
4.464317,4577
4.465315,5313
4.466317,6401
4.467318,5025
4.468315,5281
4.469317,5217
4.470319,4961
4.471315,4897
4.472317,5297
4.473318,5073
4.474318,6401
4.475317,5937
4.476317,4433
4.477316,4497
4.478317,4545
4.479317,6897
4.480317,5905
4.695427,5073
4.696323,5073
4.696988,6337
4.697641,6017
4.698283,6321
4.698984,5025
4.699628,5393
4.700272,5121
4.700918,5441
4.701580,6433
4.702221,5553
4.702870,4817
4.703520,5201
4.704164,6673
4.704814,5569
4.705463,5857
4.706109,5649
4.706787,5409
4.707440,5473
4.708092,5073
4.708745,5009
4.709400,5057
4.710054,4929
4.710706,5633
4.711362,5121
4.712317,4577
4.713315,5265
4.714317,5281
4.715318,6241
4.716334,5665
4.717320,4657
4.718316,5089
4.719318,4929
4.720317,4961
4.721317,4785
4.722318,5473
4.723316,5217
4.724317,6193
4.725315,4961
4.726318,4817
4.727317,4449
4.728317,6113
4.729318,5025
4.730316,5137
4.731318,5585
4.732317,4993
4.733319,6289
4.734317,5889
4.735317,4945
4.736317,4449
4.737317,4689
4.738317,5425
4.739317,5681
4.740317,6417
4.741315,5649
4.742314,4913
4.743319,4097
4.744318,4385
4.745316,5873
4.746317,6049
4.747317,6817
4.748319,6609
4.749318,5313
4.750317,4945
4.751315,4881
4.752317,5393
4.753317,4609
4.754316,4801
4.755314,4897
4.756318,7969
4.757317,5265
4.758317,5153
4.759316,5585
4.760319,5185
4.761318,5441
4.762318,4945
4.763319,5153
4.764319,5921
4.765317,4849
4.766319,4193
4.767317,4913
4.768317,5297
4.769319,5857
4.770317,5105
4.771317,5409
4.772315,6577
4.773317,5249
4.774317,4881
4.775316,4577
4.776317,5313
4.777317,5089
4.778317,5505
4.779317,6465
4.780335,5697
4.781324,5057
4.782319,4993
4.783316,6417
4.784318,4737
4.785316,5217
4.786317,4529
4.787316,5201
4.788318,5905
4.789317,6721
4.790318,4929
4.791317,4673
4.792319,5057
4.793318,5713
4.794319,5185
4.795317,4801
4.796316,5713
4.797319,5137
4.798315,5809
4.799317,4577
4.800317,4673
4.801319,4993
4.802315,4785
4.803317,7185
4.804319,5841
4.805315,5217
4.806315,4737
4.807317,5121
4.808318,5553
4.809318,5025
4.810318,6577
4.811318,5841
4.812317,5089
4.813317,4737
4.814319,4993
4.815317,5569
4.816316,5473
4.817316,5313
4.818317,5553
4.819318,4529
4.820319,5505
4.821317,5809
4.822318,5121
4.823317,5041
4.824317,5217
4.825318,4705
4.826316,5041
4.827319,5729
4.828319,6945
4.829316,5249
4.830319,4225
4.831318,4545
4.832318,4913
4.833317,6417
4.834318,5313
4.835317,5121
4.836317,5569
4.837319,6465
4.838317,5649
4.839318,4769
4.840319,4929
4.841317,4689
4.842317,5009
4.843318,4593
4.844332,6705
4.845320,5057
4.846317,5985
4.847318,4753
4.848318,5041
4.849317,5217
4.850317,6497
4.851319,5633
4.852316,5921
4.853318,5985
4.854316,5393
4.855318,5569
4.856317,4833
4.857316,4769
4.858318,4673
4.859316,7009
4.860318,5553
4.861318,4961
4.862318,5041
4.863316,5601
4.864317,5329
4.865316,5553
4.866319,4577
4.867318,4737
4.868319,6625
4.869319,5057
4.870315,5329
4.871317,5297
4.872315,5249
4.873316,5137
4.874317,6737
4.875316,5649
4.876317,4833
4.877317,5361
4.878318,4577
4.879317,4657
4.880316,5217
4.881317,5569
4.882317,5201
4.883318,6145
4.884317,6225
4.885318,5009
4.886317,4961
5.037800,6561
5.039849,6577
5.040847,5169
5.041706,4369
5.042532,5089
5.043414,5313
5.044217,7777
5.045028,4993
5.045840,5153
5.046672,5425
5.047477,4161
5.048288,5057
5.049099,4433
5.049909,5953
5.050722,5713
5.051535,6433
5.058876,4737
5.059117,5377
5.059329,4817
5.059542,5457
5.059752,5473
5.059964,5889
5.060174,5937
5.060393,6209
5.060605,5409
5.060817,5985
5.061317,5265
5.062318,5537
5.063316,5041
5.064316,5969
5.065317,5777
5.066317,4945
5.067318,5025
5.068317,6929
5.069317,6961
5.070317,5249
5.071316,6913
5.072317,5313
5.073318,5121
5.074318,5857
5.075320,5169
5.076317,5169
5.077319,4785
5.078317,4913
5.079317,4881
5.080319,5537
5.081317,6113
5.082316,5313
5.083317,5137
5.084317,5041
5.085316,4705
5.086318,6177
5.087317,6337
5.088317,6145
5.089316,5665
5.090314,5201
5.091317,5265
5.092317,6353
5.093317,5121
5.094317,5969
5.095317,5121
5.096317,4689
5.097319,4897
5.098316,5265
5.099318,5761
5.100338,5377
5.101324,4945
5.102319,7889
5.103317,5409
5.104315,6097
5.105317,5665
5.106316,5281
5.107317,5537
5.108317,5825
5.109318,4945
5.110316,5425
5.111317,4929
5.112318,5777
5.113317,6081
5.114317,5569
5.115317,5329
5.116318,5585
5.117317,5185
5.118318,4913
5.119317,5041
5.120318,5809
5.121317,5569
5.122316,4865
5.123317,4801
5.124317,8049
5.125317,6049
5.126318,4961
5.127317,5345
5.128318,5841
5.129317,5345
5.130315,4897
5.131317,5249
5.132317,5201
5.133319,5185
5.134317,5457
5.135318,6977
5.136318,5649
5.137317,5441
5.138318,5953
5.139316,6177
5.140317,5441
5.141318,5249
5.142315,4993
5.143317,5889
5.144320,6753
5.145318,5473
5.146317,5281
5.147317,5345
5.148318,5441
5.149317,5473
5.150320,5617
5.151316,5697
5.152318,4881
5.153320,5633
5.154317,5169
5.155315,6209
5.156316,6465
5.157317,6385
5.158315,4993
5.159318,5057
5.160317,5281
5.161317,5393
5.162318,5313
5.163317,5729
5.164338,7457
5.165324,5441
5.166317,5281
5.167316,6465
5.168317,5649
5.169316,5777
5.170317,5569
5.171317,5521
5.172319,6561
5.173316,5665
5.174317,5345
5.175315,5697
5.176318,5217
5.177319,5393
5.178315,5441
5.179316,5953
5.180316,6017
5.181315,6097
5.182318,5217
5.183314,4913
5.184317,5713
5.185318,5345
5.186316,5729
5.187317,5377
5.188315,6033
5.189316,5793
5.190315,5793
5.191319,6625
5.192316,5121
5.193318,4881
5.194317,5137
5.195317,6801
5.196318,6785
5.197314,5345
5.198317,5441
5.199316,5553
5.200318,5025
5.201316,5265
5.202315,5361
5.203316,5905
5.204317,6833
5.205318,6065
5.206318,6033
5.207318,4769
5.208317,5585
5.209317,6481
5.210315,6497
5.211319,5745
5.212315,6417
5.213315,5089
5.214317,5073
5.215317,6529
5.216317,5985
5.217317,6049
5.218316,5809
5.219315,5393
5.220317,6033
5.221317,5233
5.222319,4881
5.223318,5201
5.224314,6625
5.225316,5601
5.226315,4785
5.227318,5505
5.228330,6641
5.229325,5809
5.230321,5921
5.231315,5665
5.232318,5201
5.233317,5697
5.234317,5137
5.342861,4993
5.343495,5217
5.343896,5329
5.344269,5345
5.344640,5521
5.345072,4625
5.345437,5393
5.345801,4673
5.346167,5777
5.346555,6097
5.346921,6193
5.347291,7089
5.347658,5441
5.348316,6401
5.349316,5921
5.350315,6945
5.351317,5377
5.352317,5761
5.353319,5169
5.354317,5441
5.355317,5409
5.356339,5713
5.357323,4833
5.358320,6785
5.359318,6065
5.360317,5169
5.361317,5937
5.362320,5441
5.363317,5793
5.364316,6849
5.365319,5505
5.366318,6321
5.367317,6225
5.368316,6401
5.369319,5329
5.370316,5553
5.371317,5265
5.372318,5345
5.373318,5153
5.374318,5953
5.375317,5665
5.376317,5633
5.377316,5073
5.378317,6161
5.379317,5569
5.380318,7025
5.381315,5441
5.382317,5313
5.383318,6625
5.384318,5697
5.385319,5297
5.386318,6049
5.387319,5553
5.388316,5297
5.389316,5553
5.390316,7585
5.391317,6145
5.392318,5409
5.393317,5857
5.394316,5297
5.395317,4897
5.396315,5761
5.397316,6529
5.398317,5857
5.399319,5649
5.400317,5777
5.401317,5729
5.402317,5601
5.403317,5761
5.404317,5953
5.405317,5905
5.406317,5841
5.407318,4961
5.408319,5617
5.409318,5073
5.410317,6225
5.411317,6097
5.412317,7233
5.413317,6753
5.414317,5825
5.415317,5537
5.416317,5553
5.417316,5521
5.418317,5281
5.419318,6865
5.420328,5937
5.421320,5121
5.422317,5649
5.423316,5329
5.424317,5777
5.425315,5281
5.426319,5297
5.427317,6177
5.428317,6289
5.429317,6225
5.430317,6209
5.431319,5569
5.432318,5873
5.433315,5889
5.434317,4945
5.435318,6401
5.436317,5681
5.437317,5505
5.438319,5409
5.439319,5761
5.440317,6385
5.441318,6401
5.442315,6465
5.443317,5713
5.444315,5537
5.445317,5505
5.446317,5697
5.447317,5921
5.448318,5633
5.449316,6049
5.450318,5953
5.451314,5633
5.452317,5681
5.453318,5937
5.454317,5793
5.455317,6065
5.456318,6065
5.457319,5153
5.458317,5633
5.459318,5873
5.460315,4769
5.461318,6945
5.462319,5649
5.463315,5889
5.464318,5681
5.465319,5553
5.466317,5473
5.467317,5425
5.468319,5601
5.469316,5857
5.470317,5969
5.471319,5681
5.472317,5601
5.473319,5345
5.474317,5329
5.475318,5697
5.476315,5057
5.477317,6177
5.478317,6321
5.479319,6049
5.480317,5841
5.481317,5697
5.482317,5697
5.483316,6177
5.484329,5153
5.485318,5937
5.486318,5681
5.487318,5569
5.488319,5393
5.489317,6289
5.490318,5425
5.491317,5377
5.492318,6113
5.493317,6369
5.494317,6625
5.495318,5585
5.496318,6001
5.497318,5889
5.498316,5681
5.499320,5377
5.500317,5329
5.501318,4865
5.502317,7073
5.503316,6497
5.504317,6081
5.505318,5649
5.506316,5185
5.507317,5137
5.508317,7697
5.509317,7089
5.510317,5905
5.511315,5825
5.512318,5809
5.513316,5905
5.514318,5809
5.515318,5409
5.516316,5729
5.517316,6097
5.518318,5393
5.519315,5441
5.520318,5217
5.521317,6529
5.522317,5713
5.523316,5457
5.524317,6065
5.525316,5873
5.526318,5345
5.527317,6273
5.528315,6433
5.529316,5777
5.530314,5409
5.531317,6145
5.532316,6833
5.533318,6593
5.534318,6097
5.690047,7169
5.690852,5601
5.691408,5777
5.691926,6065
5.692445,6721
5.693028,5377
5.693551,4817
5.694068,5425
5.694593,5313
5.695131,4705
5.695656,5281
5.696175,6961
5.696697,5953
5.697218,6561
5.697747,5345
5.698270,5553
5.698793,5857
5.699342,6369
5.700317,5473
5.701319,5697
5.702317,5457
5.703317,5329
5.704317,6305
5.705319,5697
5.706317,5809
5.707317,6529
5.708316,7777
5.709316,6081
5.710318,5505
5.711316,7073
5.712318,5457
5.713317,7473
5.714318,7809
5.715316,7009
5.716320,6737
5.717318,5985
5.718318,5649
5.719316,5953
5.720319,5713
5.721316,6033
5.722318,6865
5.723317,5489
5.724318,5841
5.725316,5393
5.726318,5329
5.727317,6481
5.728316,6961
5.729317,6737
5.730317,5793
5.731316,6369
5.732317,6369
5.733316,6097
5.734317,7329
5.735319,5809
5.736317,5297
5.737318,5697
5.738317,5537
5.739317,6369
5.740340,4785
5.741322,6833
5.742318,5665
5.743316,5537
5.744317,7937
5.745318,8354
5.746318,6241
5.747317,10322
5.748316,4865
5.749319,9666
5.750318,6497
5.751317,5329
5.752317,5169
5.753317,5713
5.754316,5761
5.755317,5185
5.756316,7409
5.757317,10114
5.758317,8658
5.759317,7905
5.760317,6545
5.761319,5169
5.762316,5217
5.763317,6801
5.764318,8338
5.765318,7825
5.766316,6481
5.767318,7217
5.768317,6705
5.769316,5729
5.770318,5473
5.771317,5281
5.772317,5361
5.773317,5121
5.774316,6097
5.775318,5905
5.776319,6593
5.777316,5265
5.778318,5137
5.779316,5345
5.780317,6241
5.781317,6977
5.782319,9522
5.783316,7233
5.784318,5313
5.785316,5313
5.786317,8177
5.787317,7505
5.788316,6881
5.789317,5041
5.790319,7825
5.791317,7825
5.792317,5457
5.793318,6065
5.794318,9682
5.795317,8706
5.796316,5809
5.797318,8177
5.798317,6865
5.799317,5473
5.800317,6273
5.801318,5009
5.802316,5697
5.803316,6961
5.804332,5713
5.805319,5649
5.806318,6289
5.807317,5537
5.808317,5153
5.809317,5889
5.810318,5553
5.811316,5905
5.812318,4737
5.813316,10018
5.814318,9506
5.815319,8754
5.816317,9762
5.817317,7265
5.818317,8210
5.819317,8226
5.820315,5761
5.821317,6353
5.822315,6401
5.823317,5521
5.824318,7617
5.825317,5313
5.826316,5681
5.827318,7425
5.828316,7969
5.829317,9138
5.830317,6657
5.831317,6017
5.832316,5553
5.833317,7105
5.834316,5585
5.835317,8450
5.836318,5537
5.837318,6033
5.838316,8210
5.839316,5633
5.840317,5409
5.841318,9170
5.842318,7201
5.843318,6497
5.844319,4865
5.845317,8402
5.846317,11714
5.847315,7009
5.848318,8530
5.849317,7777
5.850317,7265
5.851317,7297
5.852317,8386
5.853318,5777
5.854318,5937
5.855317,6577
5.856316,8177
5.857318,8610
5.858317,9554
5.859317,8434
5.860317,9762
5.861316,9218
5.862315,5393
5.863317,5569
5.864317,7713
5.865318,11970
5.866315,5505
5.867317,10162
5.868330,4897
5.869321,5585
5.870318,6241
5.871319,9154
5.872316,6033
5.873317,7041
5.874319,8626
5.875318,7889
5.876317,5761
5.877319,6785
5.878317,8194
5.879318,5601
5.880315,5537
5.881317,10450
6.038693,6689
6.039614,7441
6.040322,6561
6.041002,33560
6.041681,29223
6.042424,12803
6.043094,17364
6.043768,8706
6.044441,26934
6.045139,41354
6.045817,30887
6.046494,31335
6.047167,25894
6.047849,30295
6.048527,39785
6.049198,9490
6.049874,10066
6.050581,12242
6.051257,13571
6.051938,22821
6.052621,24886
6.053307,13187
6.053983,10754
6.054670,14307
6.055357,31719
6.056318,9522
6.057318,8866
6.058317,16051
6.059315,34024
6.060338,44506
6.061324,13203
6.062321,15171
6.063320,20869
6.064316,5249
6.065317,5409
6.066317,5633
6.067318,8242
6.068315,9522
6.069318,5649
6.070315,6353
6.071318,8194
6.072319,9090
6.073317,6433
6.074318,6145
6.075317,18884
6.076317,23301
6.077315,13955
6.078316,17444
6.079319,19332
6.080315,13539
6.081315,5441
6.082317,9218
6.083317,12146
6.084318,35000
6.085318,22069
6.086317,46107
6.087316,24341
6.088317,14243
6.089316,10514
6.090317,7521
6.091316,4881
6.092316,16355
6.093316,13139
6.094317,5393
6.095318,22229
6.096317,16596
6.097316,9874
6.098318,17780
6.099315,30503
6.100318,11330
6.101317,25638
6.102315,31319
6.103317,12499
6.104318,29223
6.105317,5425
6.106317,5537
6.107318,20324
6.108318,24565
6.109317,22597
6.110317,11490
6.111316,22069
6.112315,7089
6.113315,48283
6.114317,31943
6.115318,37689
6.116317,29799
6.117318,11266
6.118317,43210
6.119318,32952
6.120317,5665
6.121317,7633
6.122317,5649
6.123318,16339
6.124334,36136
6.125319,5921
6.126317,10898
6.127319,24453
6.128316,33880
6.129317,6305
6.130317,5025
6.131318,8898
6.132316,28855
6.133317,50220
6.134317,45131
6.135316,4881
6.136316,17828
6.137318,5457
6.138317,22501
6.139317,4881
6.140319,19076
6.141316,12627
6.142318,45002
6.143317,14195
6.144319,19012
6.145318,7009
6.146315,19652
6.147316,15555
6.148319,25510
6.149317,10034
6.150318,49676
6.151318,36424
6.152319,6225
6.153317,11298
6.154320,6481
6.155317,23813
6.156317,17428
6.157319,6865
6.158317,6081
6.159317,51084
6.160318,24630
6.161316,31623
6.162318,6353
6.163317,22117
6.164316,34216
6.165319,53965
6.166315,35768
6.167319,47419
6.168316,54477
6.169318,16227
6.170319,23957
6.171317,20581
6.172316,7889
6.173317,8930
6.174316,7105
6.175318,17284
6.176317,65535
6.177317,30951
6.178317,8578
6.179317,9298
6.180315,59950
6.181319,60526
6.182316,65535
6.183317,7793
6.184317,55597
6.185319,10930
6.186316,16836
6.187318,20372
6.188327,9730
6.189322,29047
6.190317,40329
6.191317,34392
6.192317,16307
6.193319,7889
6.194319,6721
6.195316,18772
6.196317,9042
6.197317,10306
6.198318,28294
6.199318,14595
6.200316,18260
6.201315,35080
6.202318,5937
6.203317,5265
6.204316,52172
6.205317,65535
6.206319,65535
6.207315,25366
6.208319,6705
6.209319,37785
6.210318,61919
6.211317,35272
6.212317,13203
6.213316,13395
6.214314,14163
6.215317,16964
6.216318,6657
6.217318,16115
6.218315,16964
6.219320,28374
6.220318,36792
6.221317,11266
6.222318,17972
6.223315,35544
6.224316,18756
6.225317,12451
6.226316,5281
6.227318,21989
6.228316,9362
6.229317,13667
6.230317,16420
6.389714,9538
6.390202,22597
6.390487,22997
6.390724,19796
6.390957,20068
6.391217,20404
6.391456,21685
6.391689,17604
6.391917,9762
6.392166,7185
6.392403,13251
6.393315,58286
6.394318,11218
6.395317,9522
6.396318,7889
6.397316,31431
6.398317,9890
6.399317,49676
6.400318,31447
6.401317,65535
6.402318,32856
6.403317,27062
6.404317,16243
6.405316,48843
6.406318,37033
6.407317,6449
6.408317,47771
6.409317,56301
6.410316,6961
6.411318,34440
6.412316,28935
6.413318,10306
6.414316,24405
6.415317,8322
6.416317,10626
6.417316,26758
6.418316,15699
6.419315,41738
6.420317,33672
6.421319,7041
6.422316,27782
6.423316,5169
6.424316,10578
6.425316,19380
6.426317,8001
6.427320,11410
6.428317,31831
6.429315,27350
6.430318,24133
6.431317,10626
6.432317,16147
6.433315,12499
6.434319,4849
6.435315,26118
6.436317,10066
6.437316,29831
6.438317,17604
6.439317,26086
6.440317,12098
6.441317,8530
6.442316,6033
6.443317,13187
6.444335,7633
6.445323,21285
6.446320,10194
6.447318,6065
6.448316,9970
6.449316,6689
6.450315,7985
6.451320,21397
6.452318,33832
6.453318,17460
6.454317,35352
6.455318,11074
6.456318,10402
6.457318,8177
6.458317,16388
6.459317,18900
6.460318,10002
6.461317,38169
6.462317,17652
6.463319,5633
6.464317,20661
6.465319,4897
6.466317,7873
6.467317,21365
6.468316,8882
6.469317,20885
6.470318,4577
6.471318,21509
6.472316,5457
6.473317,14787
6.474315,7697
6.475318,5537
6.476318,6081
6.477318,39209
6.478317,35640
6.479317,6081
6.480319,22597
6.481317,28727
6.482320,16291
6.483318,15059
6.484317,19988
6.485318,30311
6.486317,38633
6.487318,7441
6.488316,5009
6.489316,9794
6.490315,16900
6.491317,18196
6.492316,23973
6.493317,29319
6.494318,22053
6.495316,65535
6.496315,42714
6.497319,4433
6.498317,12242
6.499317,5393
6.500315,14643
6.501317,5313
6.502316,59534
6.503317,30855
6.504317,9362
6.505317,17156
6.506317,14211
6.507316,7569
6.508335,15923
6.509322,19524
6.510319,12771
6.511317,4177
6.512319,8786
6.513317,42122
6.514318,65535
6.515318,6337
6.516319,13971
6.517317,17108
6.518318,31191
6.519318,25798
6.520318,27430
6.521318,45979
6.522317,7073
6.523317,17924
6.524319,9778
6.525316,13651
6.526317,11330
6.527316,29415
6.528319,13107
6.529318,5073
6.530317,5121
6.531318,21317
6.532318,13075
6.533318,28230
6.534317,17188
6.535317,65535
6.536317,15139
6.537320,9650
6.538317,14659
6.539318,65535
6.540316,65535
6.541317,11506
6.542317,65535
6.543315,7681
6.544318,5569
6.545316,5601
6.546320,7441
6.547316,25430
6.548318,12755
6.549318,32920
6.550318,16516
6.551317,9826
6.552318,5217
6.553317,10034
6.554318,13347
6.555317,6657
6.556316,5857
6.557317,6289
6.558317,13235
6.559318,28358
6.560318,29479
6.561316,20853
6.562316,25750
6.563317,41226
6.564317,53261
6.565317,18916
6.566316,11698
6.567316,40041
6.568317,34600
6.569318,4897
6.570317,19844
6.571316,4561
6.572332,48091
6.573323,10146
6.574317,36969
6.575314,5377
6.576318,10498
6.577318,19588
6.578318,14435
6.579315,30007
6.580317,25110
6.581315,7921
6.690264,22581
6.690922,14051
6.691339,28630
6.691731,13443
6.692119,3808
6.692582,4769
6.692973,6177
6.693363,11906
6.693752,13187
6.694159,10738
6.694548,12419
6.694935,21893
6.695325,18772
6.695714,6545
6.696318,32551
6.697318,5217
6.698318,5201
6.699317,16371
6.700336,15139
6.701319,7969
6.702317,6305
6.703317,47563
6.704316,40441
6.705317,7425
6.706317,60734
6.707317,47067
6.708317,46667
6.709319,13635
6.710317,8978
6.711318,15059
6.712318,21637
6.713317,20100
6.714318,8210
6.715317,25430
6.716317,5345
6.717317,3792
6.718317,4241
6.719316,9506
6.720318,11378
6.721318,4929
6.722317,23765
6.723318,29191
6.724318,33208
6.725317,16131
6.726318,4721
6.727317,65535
6.728319,65535
6.729317,43754
6.730317,17172
6.731317,43194
6.732316,3552
6.733319,8177
6.734318,4401
6.735318,16388
6.736316,30215
6.737319,16932
6.738318,6961
6.739317,4193
6.740320,7953
6.741317,7681
6.742318,7793
6.743317,4145
6.744318,10338
6.745317,41146
6.746317,4657
6.747317,5921
6.748318,49644
6.749317,18340
6.750318,9954
6.751317,25254
6.752317,3648
6.753315,18212
6.754319,21269
6.755317,9362
6.756315,21685
6.757317,7041
6.758315,65535
6.759317,11826
6.760318,23653
6.761317,23029
6.762318,24053
6.763316,9250
6.764347,10210
6.765322,5921
6.766319,3584
6.767317,3744
6.768316,3776
6.769318,10338
6.770316,6561
6.771318,26630
6.772318,17044
6.773315,7457
6.774319,24614
6.775319,12579
6.776316,11458
6.777316,8578
6.778317,8530
6.779318,23813
6.780315,11906
6.781319,19636
6.782315,39913
6.783319,55037
6.784318,37065
6.785316,6977
6.786317,52620
6.787316,17252
6.788317,6481
6.789317,12883
6.790317,3600
6.791317,3856
6.792318,14179
6.793318,7297
6.794318,3728
6.795317,3488
6.796320,10946
6.797317,9234
6.798318,15411
6.799317,22533
6.800318,22917
6.801317,56381
6.802318,9106
6.803319,38633
6.804317,11218
6.805318,30503
6.806318,29543
6.807319,10242
6.808318,25462
6.809316,22229
6.810317,4401
6.811317,12034
6.812318,4032
6.813317,4129
6.814317,6657
6.815317,9890
6.816317,19204
6.817319,5473
6.818317,8177
6.819318,6625
6.820316,5601
6.821319,3536
6.822316,7761
6.823317,6801
6.824317,6017
6.825315,26118
6.826317,6897
6.827317,8834
6.828333,10418
6.829320,8594
6.830319,4064
6.831318,7057
6.832315,5937
6.833319,8129
6.834320,18548
6.835317,4929
6.836317,16836
6.837317,9554
6.838317,31431
6.839315,4257
6.840317,35496
6.841316,65535
6.842317,38697
6.843316,3904
6.844318,37001
6.845315,29111
6.846317,16996
6.847316,3968
6.848318,40745
6.849317,6913
6.850320,8658
6.851317,27606
6.852318,19492
6.853317,16211
6.854315,29735
6.855316,36168
6.856318,21637
6.857318,6705
6.858319,4113
6.859317,4305
6.860317,18356
6.861317,7137
6.862318,5249
6.863316,65103
6.864318,21125
6.865315,20901
6.866318,6305
6.867317,24021
6.868318,61503
6.869318,44330
6.870318,31063
6.871319,6689
6.872318,3792
6.873317,30615
6.874316,7505
6.875318,22677
6.876319,8482
6.877318,3296
6.878317,9874
6.879319,8722
6.880318,22197
6.881318,7921
7.045947,38297
7.046760,38137
7.047332,41514
7.047876,53501
7.048422,55357
7.049025,29031
7.049567,4609
7.050111,11570
7.050654,18980
7.051210,39161
7.051757,51500
7.052302,21093
7.052843,6353
7.053391,3936
7.053930,25414
7.054480,21989
7.055021,4977
7.055593,26470
7.056317,14723
7.057315,11010
7.058318,5297
7.059317,41674
7.060316,8690
7.061317,13971
7.062317,5217
7.063318,7233
7.064319,12114
7.065316,31239
7.066317,5921
7.067318,2704
7.068317,15491
7.069316,12707
7.070317,2848
7.071318,38201
7.072317,20901
7.073317,16003
7.074316,7169
7.075316,26982
7.076319,65535
7.077316,24213
7.078317,23509
7.079315,47019
7.080319,6257
7.081316,24565
7.082317,3680
7.083316,41418
7.084336,8930
7.085324,8290
7.086318,46667
7.087319,51580
7.088317,4497
7.089318,49292
7.090317,27798
7.091316,3696
7.092316,38809
7.093317,28502
7.094316,10706
7.095318,3504
7.096317,8402
7.097319,17748
7.098318,6993
7.099317,3088
7.100317,25142
7.101317,19908
7.102317,30599
7.103315,14611
7.104318,3616
7.105316,9170
7.106318,3408
7.107317,22277
7.108319,8338
7.109316,28662
7.110317,7057
7.111317,8177
7.112317,5809
7.113318,9762
7.114317,16964
7.115318,5793
7.116317,3792
7.117317,6113
7.118315,35224
7.119317,5585
7.120317,40025
7.121317,3568
7.122315,14723
7.123317,5937
7.124316,25926
7.125319,10882
7.126317,32840
7.127316,30199
7.128315,12787
7.129318,33704
7.130316,9426
7.131315,16692
7.132317,7137
7.133317,14163
7.134318,20677
7.135319,35272
7.136317,24918
7.137317,7649
7.138319,7313
7.139315,56013
7.140319,29879
7.141318,39433
7.142318,6465
7.143315,4945
7.144318,23237
7.145318,19684
7.146316,7009
7.147318,18516
7.148333,7089
7.149324,5761
7.150319,11922
7.151317,17092
7.152316,65535
7.153317,65535
7.154317,18116
7.155318,40889
7.156317,65535
7.157319,65535
7.158316,10946
7.159317,8834
7.160316,3408
7.161317,6433
7.162319,11714
7.163317,24101
7.164317,27078
7.165317,8177
7.166318,37737
7.167319,10626
7.168317,3840
7.169319,7105
7.170318,4609
7.171316,11410
7.172316,9682
7.173317,35608
7.174318,40633
7.175317,35160
7.176320,49836
7.177318,29527
7.178318,8161
7.179317,23381
7.180317,37641
7.181318,14771
7.182317,7825
7.183317,19972
7.184316,33768
7.185316,10210
7.186316,6113
7.187317,3584
7.188317,17092
7.189318,21413
7.190317,9826
7.191319,12291
7.192318,40617
7.193319,30743
7.194317,21013
7.195316,8129
7.196317,5057
7.197319,10930
7.198316,35256
7.199318,22997
7.200318,3024
7.201317,20068
7.202316,34568
7.203319,39065
7.204317,4129
7.205318,3024
7.206317,8194
7.207318,9378
7.208317,24854
7.209317,5185
7.210317,17700
7.211317,3360
7.212332,11458
7.213324,11394
7.214318,8962
7.215317,13987
7.216317,3824
7.217317,22181
7.218317,32519
7.219318,3264
7.220317,21397
7.221316,8706
7.222317,38345
7.223317,25526
7.224317,5361
7.225315,35848
7.226318,21061
7.227317,2848
7.228318,3248
7.229318,6049
7.230317,9634
7.231319,11074
7.232316,7777
7.233318,21541
7.234317,4705
7.235315,8113
7.236319,18452
7.237318,40953
7.387272,46523
7.388233,22069
7.388968,6145
7.389678,23893
7.390380,9682
7.391147,3776
7.391852,21861
7.392556,24133
7.393251,3648
7.393968,5761
7.394673,5393
7.395378,2960
7.396078,5361
7.396788,4145
7.397495,5457
7.398197,3296
7.398904,9346
7.399637,22437
7.400343,11106
7.401052,7249
7.401767,7425
7.402478,9714
7.403185,2224
7.404027,13635
7.404753,15987
7.405468,13267
7.406177,11330
7.406893,3200
7.407608,25222
7.408323,18836
7.409317,8898
7.410317,9666
7.411317,3888
7.412317,5137
7.413316,3376
7.414317,16740
7.415317,28038
7.416316,27654
7.417317,4737
7.418319,8017
7.419316,44634
7.420319,42650
7.421317,24646
7.422317,6033
7.423318,14403
7.424318,22021
7.425317,8177
7.426319,9042
7.427317,3424
7.428316,4433
7.429317,5521
7.430318,14675
7.431317,29095
7.432316,18916
7.433317,45259
7.434319,4016
7.435317,10706
7.436318,11394
7.437317,13187
7.438317,34072
7.439319,10770
7.440317,4625
7.441317,9650
7.442317,5985
7.443315,7473
7.444317,11298
7.445318,6657
7.446319,3168
7.447318,3456
7.448317,5697
7.449317,6177
7.450318,11522
7.451317,5153
7.452319,5345
7.453317,5265
7.454316,4401
7.455318,10546
7.456317,18788
7.457318,18900
7.458316,24485
7.459316,3472
7.460318,7569
7.461318,25734
7.462317,32984
7.463317,22869
7.464317,14451
7.465317,9794
7.466317,35944
7.467317,27910
7.468336,9266
7.469325,5809
7.470318,22533
7.471314,29159
7.472318,33816
7.473317,5185
7.474318,33256
7.475317,24501
7.476318,5313
7.477317,36136
7.478317,6849
7.479317,13971
7.480318,4609
7.481318,7521
7.482317,4305
7.483319,16564
7.484317,8626
7.485316,25958
7.486317,6145
7.487316,29319
7.488317,9602
7.489316,13139
7.490319,12291
7.491318,13491
7.492317,30183
7.493318,15203
7.494316,14979
7.495318,22165
7.496317,31111
7.497319,13363
7.498317,10338
7.499317,18772
7.500318,30039
7.501316,9522
7.502318,5729
7.503319,16083
7.504318,8546
7.505317,8978
7.506317,3664
7.507316,30391
7.508317,8033
7.509317,11346
7.510316,10690
7.511316,8578
7.512318,18836
7.513317,5937
7.514319,2960
7.515316,9618
7.516320,27222
7.517319,27878
7.518316,4561
7.519317,9682
7.520316,22549
7.521317,30055
7.522317,19396
7.523318,7185
7.524318,25638
7.525317,15811
7.526317,5809
7.527317,9858
7.528317,22213
7.529317,8850
7.530317,8674
7.531318,13779
7.532333,28695
7.533321,4561
7.534317,29127
7.535319,15507
7.536320,3264
7.537317,13843
7.538317,25654
7.539316,3712
7.540317,7537
7.541317,8097
7.542318,31975
7.543318,3712
7.544318,18708
7.545317,5217
7.546316,25798
7.547319,3408
7.548317,8530
7.549319,4865
7.550318,6849
7.551319,19988
7.552318,4785
7.553318,23221
7.563923,7201
7.564151,9474
7.564365,11666
7.564582,19540
7.564793,22469
7.565005,22229
7.565220,12371
7.565436,4929
7.565650,7233
7.565868,15507
7.566316,3280
7.567318,5681
7.568318,3680
7.569317,10402
7.570315,64303
7.571320,31911
7.572315,19076
7.573317,5921
7.574318,3232
7.575318,9634
7.576316,47339
7.577317,22277
7.578317,3728
7.579320,10530
7.580315,14531
7.694899,7377
7.695453,34072
7.695766,47067
7.696059,56125
7.696347,55101
7.696688,56365
7.696965,55693
7.697246,51388
7.697530,41594
7.697830,31655
7.698111,24934
7.698397,21397
7.699318,23941
7.700318,6449
7.701316,5793
7.702315,4016
7.703319,12995
7.704317,23013
7.705315,20901
7.706318,12178
7.707317,3168
7.708315,4481
7.709316,7377
7.710319,8177
7.711315,9122
7.712319,10578
7.713317,9666
7.714318,14979
7.715317,16227
7.716317,6433
7.717316,7153
7.718318,14339
7.719317,52204
7.720320,32215
7.721316,8818
7.722319,11570
7.723317,33256
7.724335,53597
7.725324,35048
7.726322,15187
7.727317,4817
7.728318,2784
7.729317,18212
7.730317,16676
7.731317,22789
7.732318,30407
7.733318,42938
7.734316,32599
7.735317,5953
7.736317,26726
7.737317,55469
7.738317,32183
7.739317,42298
7.740316,20276
7.741317,41018
7.742318,65535
7.743317,65535
7.744318,45259
7.745316,18500
7.746316,23109
7.747319,12339
7.748318,4401
7.749319,7617
7.750316,3296
7.751317,13651
7.752318,17572
7.753318,12547
7.754317,12515
7.755317,4129
7.756317,37177
7.757317,46939
7.758317,27878
7.759319,20757
7.760317,43034
7.761317,29111
7.762318,45723
7.763320,43098
7.764317,30983
7.765317,37641
7.766315,34696
7.767317,3360
7.768317,14915
7.769316,8658
7.770319,11074
7.771316,12098
7.772317,32135
7.773317,12851
7.774315,4609
7.775315,4481
7.776317,28406
7.777318,37545
7.778318,19220
7.779317,5361
7.780317,24005
7.781316,34632
7.782316,41530
7.783315,15603
7.784317,10258
7.785318,11074
7.786315,6529
7.787317,9650
7.788347,22197
7.789326,6913
7.790320,19876
7.791318,10194
7.792315,29383
7.793317,23893
7.794317,3728
7.795317,7185
7.796316,4433
7.797317,7713
7.798315,30503
7.799315,6689
7.800317,12515
7.801318,16404
7.802317,39705
7.803316,34280
7.804318,7985
7.805315,29159
7.806317,28038
7.807316,4993
7.808317,24277
7.809317,13811
7.810318,14787
7.811318,11026
7.812318,11074
7.813317,8738
7.814316,22069
7.815317,32808
7.816317,13507
7.817317,9746
7.818319,19012
7.819319,3248
7.820318,13347
7.821317,17492
7.822319,23717
7.823317,10546
7.824317,38633
7.825316,14291
7.826317,26262
7.827317,13011
7.828319,19540
7.829317,4113
7.830316,44954
7.831316,10194
7.832317,12867
7.833315,48139
7.834317,4353
7.835320,6849
7.836317,4273
7.837317,54461
7.838319,47179
7.839317,4529
7.840317,15331
7.841318,33640
7.842318,50700
7.843317,17316
7.844315,27814
7.845317,28871
7.846318,44218
7.847318,51292
7.848317,40681
7.849315,10146
7.850317,55389
7.851317,65535
7.852333,65535
7.853325,8177
7.854317,24565
7.855318,7137
7.856316,46907
7.857319,18052
7.858317,11426
7.859317,37913
7.860317,43834
7.861317,25798
7.862317,65535
7.863317,52300
7.864316,22053
7.865317,7201
7.866317,12867
7.867317,15155
7.868317,16067
7.869317,6609
7.870317,34040
7.871318,24485
7.872319,5505
7.873317,9106
7.874318,34120
7.875318,65535
7.876317,60718
7.877317,5281
7.878317,43114
7.879317,33384
7.880319,18452
7.881317,13635
7.882318,32920
7.883317,28326
7.884317,19716
7.885316,7521
7.886315,40473
8.053475,11426
8.054171,37801
8.054649,39401
8.055086,28102
8.055519,6401
8.056021,25926
8.056457,21541
8.056888,7313
8.057325,3888
8.057778,15523
8.058213,20436
8.058653,21125
8.059090,37657
8.059531,52508
8.059966,19572
8.060404,31559
8.061316,55741
8.062318,37945
8.063317,20292
8.064318,28871
8.065317,7361
8.066318,4577
8.067318,19476
8.068316,51596
8.069319,65535
8.070318,25798
8.071318,6833
8.072318,28775
8.073318,7137
8.074315,27222
8.075316,11794
8.076317,32727
8.077317,20517
8.078317,35496
8.079317,18612
8.080317,7377
8.081317,9506
8.082317,55709
8.083319,6673
8.084315,6609
8.085318,29095
8.086317,6721
8.087316,9330
8.088318,14147
8.089317,24726
8.090317,6625
8.091316,22197
8.092318,34360
8.093315,65535
8.094319,58398
8.095316,9730
8.096317,25270
8.097316,23205
8.098317,45979
8.099316,28903
8.100317,4129
8.101317,6865
8.102315,26790
8.103316,11442
8.104318,17252
8.105317,16884
8.106317,9410
8.107316,14691
8.108335,53789
8.109324,65535
8.110320,5793
8.111317,65535
8.112318,65535
8.113317,58670
8.114318,4513
8.115316,14531
8.116316,23669
8.117318,4689
8.118317,18836
8.119317,42010
8.120318,25110
8.121317,27494
8.122316,9938
8.123317,16420
8.124319,43834
8.125318,27606
8.126317,61855
8.127316,65535
8.128317,42442
8.129317,11554
8.130317,8802
8.131318,23973
8.132317,11602
8.133317,10370
8.134318,26438
8.135317,49500
8.136315,28358
8.137316,4993
8.138316,12451
8.139316,4209
8.140318,6785
8.141316,15267
8.142319,14931
8.143317,20613
8.144317,19172
8.145318,4289
8.146317,6865
8.147317,21525
8.148317,19028
8.149316,3680
8.150317,8722
8.151317,4753
8.152318,9538
8.153315,4641
8.154317,30471
8.155316,30359
8.156316,7985
8.157316,5585
8.158315,5537
8.159317,16468
8.160317,22261
8.161316,21573
8.162317,4561
8.163318,4433
8.164315,43658
8.165318,37577
8.166316,6017
8.167318,31191
8.168317,21445
8.169316,5681
8.170316,10962
8.171317,23061
8.172334,55709
8.173326,36696
8.174319,4737
8.175319,24469
8.176320,60814
8.177319,34136
8.178318,36024
8.179318,5873
8.180318,8738
8.181318,28086
8.182319,31063
8.183315,18548
8.184315,9682
8.185319,6449
8.186315,7137
8.187318,50412
8.188317,17764
8.189318,4417
8.190318,54973
8.191317,38377
8.192316,6241
8.193317,65535
8.194318,7521
8.195316,24389
8.196316,50892
8.197318,7713
8.198317,8498
8.199317,4369
8.200317,8578
8.201319,12819
8.202316,13603
8.203318,6593
8.204317,12451
8.205318,5441
8.206317,40441
8.207318,17812
8.208317,6241
8.209316,36024
8.210319,26886
8.211316,13155
8.212318,5825
8.213317,9538
8.214317,16772
8.215317,17428
8.216317,4161
8.217317,5313
8.218317,12387
8.219317,4881
8.220319,10242
8.221318,8706
8.222317,17780
8.223317,18372
8.224317,11538
8.225318,17108
8.226317,53020
8.227316,14515
8.228316,58462
8.229317,30599
8.230318,13907
8.231317,8722
8.232317,28775
8.233316,5009
8.234317,5761
8.235316,19844
8.236337,14643
8.237323,10434
8.238317,21493
8.239317,28358
8.240317,13363
8.241318,45034
8.242316,11666
8.243316,24565
8.244317,7377
8.398669,16051
8.399514,14355
8.400130,15651
8.400730,15811
8.401316,4833
8.401964,10466
8.402554,11074
8.403137,7089
8.403729,9378
8.404338,7697
8.404923,5281
8.405513,10290
8.406102,14883
8.406698,4785
8.407295,5761
8.407883,15491
8.408480,65535
8.409087,65535
8.409683,65535
8.410316,39193
8.411316,51948
8.412316,39273
8.413318,62175
8.414316,31063
8.415319,51724
8.416318,57341
8.417320,6049
8.418317,5585
8.419317,20757
8.420316,65535
8.421319,10194
8.422317,4449
8.423318,4913
8.424317,10930
8.425319,4513
8.426318,41098
8.427318,13651
8.428340,22629
8.429322,8946
8.430317,14083
8.431317,8194
8.432317,9138
8.433319,14819
8.434320,15859
8.435319,12643
8.436317,40617
8.437316,6225
8.438316,65535
8.439316,65535
8.440316,10530
8.441317,59230
8.442317,33384
8.443317,25606
8.444318,19076
8.445317,37161
8.446317,14131
8.447316,55693
8.448318,40617
8.449317,31655
8.450315,50860
8.451319,6945
8.452317,7073
8.453317,5985
8.454316,37417
8.455319,21589
8.456316,20148
8.457315,27110
8.458317,24998
8.459319,5649
8.460317,4417
8.461317,27206
8.462317,15075
8.463318,24197
8.464317,8177
8.465318,11234
8.466317,7761
8.467318,5569
8.468318,15139
8.469317,4433
8.470317,22917
8.471319,27430
8.472318,11634
8.473316,8722
8.474317,12867
8.475316,14211
8.476317,25750
8.477317,40953
8.478319,8498
8.479316,5393
8.480317,30679
8.481318,11954
8.482317,5665
8.483318,18468
8.484315,47691
8.485317,63727
8.486318,34552
8.487318,5377
8.488316,9202
8.489317,33672
8.490317,21541
8.491317,15971
8.492333,5761
8.493324,9538
8.494318,7905
8.495319,4385
8.496317,4705
8.497317,28855
8.498317,6289
8.499317,65535
8.500318,56845
8.501317,6689
8.502318,4785
8.503315,8177
8.504319,49420
8.505315,49724
8.506318,42026
8.507317,8290
8.508316,7985
8.509317,46155
8.510316,16067
8.511318,5697
8.512315,18564
8.513319,8898
8.514316,6625
8.515317,10706
8.516317,27542
8.517317,6225
8.518317,61294
8.519317,65535
8.520317,38841
8.521316,36440
8.522317,46363
8.523318,9874
8.524317,19380
8.525315,5137
8.526319,7137
8.527317,14483
8.528318,13699
8.529317,10562
8.530318,30487
8.531317,17588
8.532317,4305
8.533319,12098
8.534318,12595
8.535316,40970
8.536318,47339
8.537317,6209
8.538316,8274
8.539317,30279
8.540316,11602
8.541317,6273
8.542317,28903
8.543318,7585
8.544317,5025
8.545316,32167
8.546317,11362
8.547319,32840
8.548317,12771
8.549316,4353
8.550319,43082
8.551316,9666
8.552317,16964
8.553316,42650
8.554317,19780
8.555317,4961
8.556334,26118
8.557325,8722
8.558319,18116
8.559319,41610
8.560316,21509
8.561317,9106
8.562318,34920
8.563317,52524
8.564316,5217
8.565315,12371
8.566317,6225
8.567314,35512
8.568316,16740
8.569318,23557
8.570317,29335
8.571317,39705
8.572317,12819
8.573319,18468
8.574315,4593
8.575315,16307
8.576317,40105
8.577318,16724
8.578318,29655
8.579319,65087
8.580317,47307
8.581319,24565
8.582317,34072
8.583318,17476
8.584318,28679
8.585318,21077
8.586317,8546
8.587316,5185
8.588315,3488
8.589315,24870
8.590319,7217
8.740182,14499
8.741199,12242
8.741982,7761
8.742743,7521
8.743491,14035
8.744311,3808
8.745062,16211
8.745814,4321
8.746561,11234
8.747328,9826
8.748317,8017
8.749080,18628
8.749838,5393
8.750592,7889
8.751344,30487
8.752093,24149
8.752851,5857
8.753636,20420
8.754392,22181
8.755147,12002
8.755912,13043
8.756674,8930
8.757432,6913
8.758189,22053
8.758954,12258
8.759719,5585
8.760481,7953
8.761239,7681
8.762004,13235
8.762769,11458
8.763531,22229
8.764298,10194
8.765057,45547
8.765861,65535
8.766628,65535
8.767397,45611
8.768318,12867
8.769316,18084
8.770319,24918
8.771319,42250
8.772318,14019
8.773318,11218
8.774316,15763
8.775317,23813
8.776318,4801
8.777317,15331
8.778317,15187
8.779315,17604
8.780315,44490
8.781317,4929
8.782317,25990
8.783317,27942
8.784317,23077
8.785316,14243
8.786316,9170
8.787317,10754
8.788317,8177
8.789317,3504
8.790317,18532
8.791317,8706
8.792317,4561
8.793318,4080
8.794317,3584
8.795317,5425
8.796318,5729
8.806556,23701
8.806786,37049
8.806994,46459
8.807206,52908
8.807424,62607
8.807637,62607
8.807850,61086
8.808058,53485
8.808272,47259
8.808489,34568
8.809319,11346
8.810317,8338
8.811317,12451
8.812333,14563
8.813323,33320
8.814316,18356
8.815317,18212
8.816315,5169
8.817317,16035
8.818315,5505
8.819318,5409
8.820319,4241
8.821316,3536
8.822317,21957
8.823317,3680
8.824318,5377
8.825317,3584
8.826316,22373
8.827317,9106
8.828314,12771
8.829317,25046
8.830317,33512
8.831318,28919
8.832319,17364
8.833316,18820
8.834317,24261
8.835317,38921
8.836317,22085
8.837317,37673
8.838317,10018
8.839317,42746
8.840317,58446
8.841318,34632
8.842317,24565
8.843318,11010
8.844316,32567
8.845317,24806
8.846317,4833
8.847317,20677
8.848317,9426
8.849318,10482
8.850315,6065
8.851315,24565
8.852318,14467
8.853317,3568
8.854318,10770
8.855315,43818
8.856318,8177
8.857318,8450
8.858319,7649
8.859319,7217
8.860318,20741
8.861317,12194
8.862317,25174
8.863315,28871
8.864317,9250
8.865318,31047
8.866318,3840
8.867317,25654
8.868319,28566
8.869317,24565
8.870317,16067
8.871316,3552
8.872318,5457
8.873316,7809
8.874318,7649
8.875317,18484
8.876334,56941
8.877323,7073
8.878321,34984
8.879319,17044
8.880317,3488
8.881315,11730
8.882317,3520
8.883318,6977
8.884318,5521
8.885316,11298
8.886317,3552
8.887319,8594
8.888318,54477
8.889318,50188
8.890318,48699
8.891317,49612
8.892317,24293
8.893319,19940
8.894317,50876
8.895318,21653
8.896319,3328
8.897317,15603
8.898318,43466
8.899317,57902
8.900316,42570
8.901318,5681
8.902318,18196
8.903317,3552
8.904319,27478
8.905317,6817
8.906318,33080
8.907317,6561
8.908317,3280
8.909317,23493
8.910317,22981
8.911315,11138
8.912318,18436
8.913318,13811
8.914319,3360
8.915317,9826
8.916315,9170
8.917319,14355
8.918317,18900
8.919320,4145
8.920318,21317
8.921316,4289
8.922318,30615
8.923317,4353
8.924318,3600
8.925316,8370
8.926319,16115
8.927315,52620
8.928318,18180
8.929317,35288
8.930317,60398
8.931317,63919
8.932317,28070
8.933315,6321
9.046222,6593
9.046823,9346
9.047185,25158
9.047542,32743
9.047879,15667
9.048290,16163
9.048626,30087
9.048968,29879
9.049314,23957
9.049672,10450
9.050010,10962
9.050353,17300
9.050696,11794
9.051317,10562
9.052317,5569
9.053317,3152
9.054317,14131
9.055316,13395
9.056317,19044
9.057318,32103
9.058317,10722
9.059318,20677
9.060317,7761
9.061317,20533
9.062319,62399
9.063317,10034
9.064317,3632
9.065316,3520
9.066317,3104
9.067318,3168
9.068457,5105
9.069324,14851
9.070321,9266
9.071317,5585
9.072316,13827
9.073318,18260
9.074318,5201
9.075317,26294
9.076319,8914
9.077317,3616
9.078317,27398
9.079317,13507
9.080318,5521
9.081317,7201
9.082317,9826
9.083319,31319
9.084319,9602
9.085317,40537
9.086316,5969
9.087316,4465
9.088316,21925
9.089318,4545
9.090315,5953
9.091318,3504
9.092316,9026
9.093317,5217
9.094320,20388
9.095316,7521
9.096317,13107
9.097318,42282
9.098318,21205
9.099315,11346
9.100317,33992
9.101318,65535
9.102317,6865
9.103318,15155
9.104316,9666
9.105317,14563
9.106317,6017
9.107318,18468
9.108317,19988
9.109317,7953
9.110317,30007
9.111319,19396
9.112317,7201
9.113315,8882
9.114316,12579
9.115317,3552
9.116317,6753
9.117317,25110
9.118317,12451
9.119319,16019
9.120314,51868
9.121317,41530
9.122317,11906
9.123317,4865
9.124317,38025
9.125319,44938
9.126316,34280
9.127317,15955
9.128317,5729
9.129317,27734
9.130316,29783
9.131316,3552
9.132333,24998
9.133323,12867
9.134320,7425
9.135317,23381
9.136316,8145
9.137318,32151
9.138317,11010
9.139317,18292
9.140317,4993
9.141319,7393
9.142316,40249
9.143319,47499
9.144317,31047
9.145317,21157
9.146316,53453
9.147317,16420
9.148319,36488
9.149316,12867
9.150318,33624
9.151318,25126
9.152318,8338
9.153316,9138
9.154316,15251
9.155316,5217
9.156319,5281
9.157319,3248
9.158316,3408
9.159319,12755
9.160316,14515
9.161317,26454
9.162317,20276
9.163317,35096
9.164319,3216
9.165317,23077
9.166317,6817
9.167317,9250
9.168317,40393
9.169318,48171
9.170318,55341
9.171317,11602
9.172317,16420
9.173317,27270
9.174316,41002
9.175318,33720
9.176319,38601
9.177317,4273
9.178317,10754
9.179318,27494
9.180317,8418
9.181316,3296
9.182318,16003
9.183317,3760
9.184317,3152
9.185319,7425
9.186317,6209
9.187315,50140
9.188316,17812
9.189319,11218
9.190318,29063
9.191317,31447
9.192317,40729
9.193317,11202
9.194317,22725
9.195318,8161
9.196336,5009
9.197325,4577
9.198316,6081
9.199319,8177
9.200315,30231
9.201318,34888
9.202317,5729
9.203317,15555
9.204317,16900
9.205318,6593
9.206317,13491
9.207316,43658
9.208318,22757
9.209317,22373
9.210318,25046
9.211320,10162
9.212317,7345
9.213317,6817
9.214319,18084
9.215315,6993
9.216319,12803
9.217317,5153
9.218315,6177
9.219318,7009
9.220315,11826
9.221316,22885
9.222318,7057
9.223317,43514
9.224318,43690
9.225316,32151
9.226316,6305
9.227317,21205
9.228316,63343
9.229318,23141
9.230319,17764
9.231318,20869
9.232318,13539
9.233316,4193
9.234318,12723
9.235318,9538
9.236319,7825
9.237317,11618
9.398904,4769
9.399663,32904
9.400180,30551
9.400681,8210
9.401171,15635
9.401735,27798
9.402227,12323
9.402723,6897
9.403221,12130
9.403737,4225
9.404228,10050
9.404725,8177
9.405221,6353
9.405724,7953
9.406223,4161
9.406725,4753
9.407319,10354
9.408318,4032
9.409319,4737
9.410318,3808
9.411316,3968
9.412317,6577
9.413315,3456
9.414319,9698
9.415316,3200
9.416317,3584
9.417318,7857
9.418316,9106
9.419317,14419
9.420317,30679
9.421320,14819
9.422315,23925
9.423316,58638
9.424317,20356
9.425318,54813
9.426315,21509
9.427317,5169
9.428319,22709
9.429315,14371
9.430318,4897
9.431317,4513
9.432316,9490
9.433317,4161
9.434317,28454
9.435317,27158
9.436318,5617
9.437317,5921
9.438317,10274
9.439316,32679
9.440317,30263
9.441316,9634
9.442317,20821
9.443315,52444
9.444318,36536
9.445319,3424
9.446317,4849
9.447318,11202
9.448317,43546
9.449316,31175
9.450317,5761
9.451318,14355
9.452339,9634
9.453320,15251
9.454319,23685
9.455318,12146
9.456319,4016
9.457317,10370
9.458317,7697
9.459317,23557
9.460317,23845
9.461317,7617
9.462319,28326
9.463318,13747
9.464317,31655
9.465317,38409
9.466317,12563
9.467317,43978
9.468317,4513
9.469316,12547
9.470317,7745
9.471319,9762
9.472317,30215
9.473316,11874
9.474317,20645
9.475317,7265
9.476316,25782
9.477317,4369
9.478316,3856
9.479318,36873
9.480319,8914
9.481317,65535
9.482319,65535
9.483319,16484
9.484317,23445
9.485318,20677
9.486318,21589
9.487317,9154
9.488318,3424
9.489317,8338
9.490318,14467
9.491316,27846
9.492317,9442
9.493316,11090
9.494319,28662
9.495315,6529
9.496318,4032
9.497317,6961
9.498319,4641
9.499317,12643
9.500317,18980
9.501316,20677
9.502317,9954
9.503318,5745
9.504317,13507
9.505317,7889
9.506318,24662
9.507319,6881
9.508317,5057
9.509317,13059
9.510316,4016
9.511319,3344
9.512318,6865
9.513316,7121
9.514316,29895
9.515317,8129
9.516334,4929
9.517319,9874
9.518319,9058
9.519318,31063
9.520319,9538
9.521318,33096
9.522319,5329
9.523317,20132
9.524318,10802
9.525319,19668
9.526317,8113
9.527317,4641
9.528319,17924
9.529315,3504
9.530316,3888
9.531317,27030
9.532317,26854
9.533317,12323
9.534318,15315
9.535318,28406
9.536316,4369
9.537315,10578
9.538317,11730
9.539318,17940
9.540317,12947
9.541317,31319
9.542318,10002
9.543318,15987
9.544318,65535
9.545318,36696
9.546317,4016
9.547316,25382
9.548316,22677
9.549317,6801
9.550317,14755
9.551317,16388
9.552315,5473
9.553318,7313
9.554317,7329
9.555317,4048
9.556317,11810
9.557317,26262
9.558317,7105
9.559316,13731
9.560319,40425
9.561317,7937
9.562317,33512
9.563318,17620
9.564316,19844
9.565317,4032
9.566318,3104
9.567317,4929
9.568317,4000
9.569318,4769
9.570316,3920
9.571319,15443
9.572318,13443
9.573317,20148
9.574316,7265
9.575315,4561
9.576317,5889
9.577318,19812
9.578318,3808
9.579316,43658
9.580332,54029
9.581324,16468
9.582320,26070
9.583318,13715
9.584317,31271
9.585317,19172
9.586317,12515
9.587317,12819
9.588317,5057
9.589318,8466
9.590317,22357
9.746626,7553
9.747528,8177
9.748201,4321
9.748857,30743
9.749507,32663
9.750217,9090
9.750865,27062
9.751512,39385
9.752157,45227
9.752824,30791
9.753474,21157
9.754120,30231
9.754773,8898
9.755429,5185
9.756079,5809
9.756735,31223
9.757385,29463
9.758064,20741
9.758718,9010
9.759373,15427
9.760023,6545
9.760681,4625
9.761342,6225
9.762318,4673
9.763315,5729
9.764318,9602
9.765318,5793
9.766317,40489
9.767317,17380
9.768317,6321
9.769316,7297
9.770317,65535
9.771316,25094
9.772344,14851
9.773323,17252
9.774322,12210
9.775318,35880
9.776317,19604
9.777315,7777
9.778318,6337
9.779317,25142
9.780318,20885
9.781317,29591
9.782317,3920
9.783317,9458
9.784319,3472
9.785316,8850
9.786319,6289
9.787317,20388
9.788319,13331
9.789319,15795
9.790319,15459
9.791317,10370
9.792315,8177
9.793314,5297
9.794317,54205
9.795315,19076
9.796316,29175
9.797317,5985
9.798318,9858
9.799317,16099
9.800316,6945
9.801318,7633
9.802317,15123
9.803317,18052
9.804319,6321
9.805317,7825
9.806317,5121
9.807317,3664
9.808315,8626
9.809317,29639
9.810318,4097
9.811316,22469
9.812317,35128
9.813317,6849
9.814318,26774
9.815318,25814
9.816316,36280
9.817316,25670
9.818318,47003
9.819318,9746
9.820317,29319
9.821317,32551
9.822317,60830
9.823317,16852
9.824316,6737
9.825318,7969
9.826317,6753
9.827316,8786
9.828317,10930
9.829316,6561
9.830317,6289
9.831316,4881
9.832317,23781
9.833317,9698
9.834318,7601
9.835318,25430
9.836334,6049
9.837323,15955
9.838321,24710
9.839319,4225
9.840315,6961
9.841317,3872
9.842318,4064
9.843319,24405
9.844318,12547
9.845317,7665
9.846317,3408
9.847318,15075
9.848317,12947
9.849316,17620
9.850316,15811
9.851318,15395
9.852316,19268
9.853318,13491
9.854317,4577
9.855317,21141
9.856317,7841
9.857318,3904
9.858318,12675
9.859316,13747
9.860317,16996
9.861318,6737
9.862317,17332
9.863316,14019
9.864315,16580
9.865315,26838
9.866319,9138
9.867318,21861
9.868318,11234
9.869317,65535
9.870317,20068
9.871320,9010
9.872317,12242
9.873318,10546
9.874316,22773
9.875316,9394
9.876315,10210
9.877318,8290
9.878317,4785
9.879317,11890
9.880317,5009
9.881317,5073
9.882320,6865
9.883319,24069
9.884316,17892
9.885315,23141
9.886318,10194
9.887319,4913
9.888317,5313
9.889317,23077
9.890319,20244
9.891319,6289
9.892317,35256
9.893319,12899
9.894317,60894
9.895317,65535
9.896317,36632
9.897317,4657
9.898317,26742
9.899316,5489
9.900330,9138
9.901322,8962
9.902319,27158
9.903317,16195
9.904317,30423
9.905315,14819
9.906316,17044
9.907318,33816
9.908317,13235
9.909318,5521
9.910316,22821
9.911316,7697
9.912318,8386
9.913316,4881
9.914317,3840
9.915317,20052
9.916317,6833
9.917318,10914
9.918317,4145
9.919318,5329
9.920317,18868
9.921317,6545
9.922318,5905
9.923314,21973
9.924317,7649
9.925318,34792
9.926316,10274
9.927317,6913
9.928316,4737
9.929315,17828
9.930318,17684
9.931317,11538
9.932316,10674
9.933317,14675
9.934317,20565
9.935317,8226
9.936319,30567
9.937319,4481
9.938317,6337
10.099191,5505
10.101303,37865
10.102265,5329
10.103124,40873
10.103951,9778
10.104831,16932
10.105643,20420
10.106456,26278
10.107266,5137
10.108099,18452
10.108917,19796
10.109735,6737
10.110550,12483
10.111363,5393
10.112180,7473
10.112998,20340
10.120347,7505
10.120585,12066
10.120804,19796
10.121016,30471
10.121230,31127
10.121449,28903
10.121661,22677
10.121880,19220
10.122095,22725
10.122317,21733
10.123318,23781
10.124315,23093
10.125319,12050
10.126317,5713
10.127317,7489
10.128317,7041
10.129317,15123
10.130317,7745
10.131318,6129
10.132317,12435
10.133318,18852
10.134318,10498
10.135316,13667
10.136317,13331
10.137317,16291
10.138317,14739
10.139316,28150
10.140317,24389
10.141317,16516
10.142317,11026
10.143319,10802
10.144317,5153
10.145319,5073
10.146317,20933
10.147315,17044
10.148318,30823
10.149317,4881
10.150317,9906
10.151318,7697
10.152317,5761
10.153318,4113
10.154316,11074
10.155317,5585
10.156347,11842
10.157323,6785
10.158320,20324
10.159319,21061
10.160316,8177
10.161317,12707
10.162315,30727
10.163317,28374
10.164319,7633
10.165316,5505
10.166317,15795
10.167317,36168
10.168318,5121
10.169320,29063
10.170318,14515
10.171317,22245
10.172317,26982
10.173319,4225
10.174315,5169
10.175317,3920
10.176317,12467
10.177318,10882
10.178317,10626
10.179317,4177
10.180318,5377
10.181317,3664
10.182315,7889
10.183318,7457
10.184316,4705
10.185317,20789
10.186317,10082
10.187318,15971
10.188318,4545
10.189317,8418
10.190317,8946
10.191319,18772
10.192317,18580
10.193317,5249
10.194317,12643
10.195318,30567
10.196316,15683
10.197318,12066
10.198315,9314
10.199316,34504
10.200318,65535
10.201315,65535
10.202318,18900
10.203317,22405
10.204318,48091
10.205317,63887
10.206317,44330
10.207319,19732
10.208318,6529
10.209317,7089
10.210317,35832
10.211317,43850
10.212317,26150
10.213316,5425
10.214319,3936
10.215316,6593
10.216318,20789
10.217317,32135
10.218317,33992
10.219317,21829
10.220343,5281
10.221324,5729
10.222319,40633
10.223317,33624
10.224316,13843
10.225317,4417
10.226317,4529
10.227318,39769
10.228317,8578
10.229317,6449
10.230314,30647
10.231318,13539
10.232318,24582
10.233318,29799
10.234317,9890
10.235317,4369
10.236316,10658
10.237317,5713
10.238318,5969
10.239317,3984
10.240318,8514
10.241318,11458
10.242317,10578
10.243318,4497
10.244318,8498
10.245317,34520
10.246319,8033
10.247317,10642
10.248318,37481
10.249317,33272
10.250318,18724
10.251317,4064
10.252316,10514
10.253317,20757
10.254316,4433
10.255317,21205
10.256315,30247
10.257317,8434
10.258318,24069
10.259319,19412
10.260317,13443
10.261318,8033
10.262319,4097
10.263316,21845
10.264317,45403
10.265317,12291
10.266319,8177
10.267318,12082
10.268317,4097
10.269318,4193
10.270315,7713
10.271317,5697
10.272317,3920
10.273317,9394
10.274316,7601
10.275320,23525
10.276316,7873
10.277318,40953
10.278316,34600
10.279317,4929
10.280318,5281
10.281318,4369
10.282316,8274
10.283318,37913
10.284385,11554
10.285322,4193
10.286319,33256
10.287316,19524
10.288317,24325
10.289317,8194
10.290317,18020
10.291315,7553
10.292320,9810
10.293317,22069
10.294316,4545
10.295318,31063
10.296317,21877
10.454420,13619
10.455053,36969
10.455471,30151
10.455850,13859
10.456222,7825
10.456681,3616
10.457055,6273
10.457435,8994
10.457806,8770
10.458201,13075
10.458581,13443
10.458956,6257
10.459340,8177
10.459720,10626
10.460317,7937
10.461316,17972
10.462317,13283
10.463316,12627
10.464315,50876
10.465317,6081
10.466318,8674
10.467317,14563
10.468318,10994
10.469318,6593
10.470319,3872
10.471317,16371
10.472317,18324
10.473318,29143
10.474317,8418
10.475318,6737
10.476335,23701
10.477324,40953
10.478318,27606
10.479317,7649
10.480319,19668
10.481317,12483
10.482318,8706
10.483317,8161
10.484319,8177
10.485317,7857
10.486317,5873
10.487317,4529
10.488316,8610
10.489317,4545
10.490317,9218
10.491316,16452
10.492317,4161
10.493318,4481
10.494315,5681
10.495318,10594
10.496317,21173
10.497318,4561
10.498317,25110
10.499316,19988
10.500315,4897
10.501318,6033
10.502317,6305
10.503318,7873
10.504316,7633
10.505317,10738
10.506317,4097
10.507317,9282
10.508316,4369
10.509317,4177
10.510315,4609
10.511317,4080
10.512317,6353
10.513317,3776
10.514319,4305
10.515317,3936
10.516319,5169
10.517319,5825
10.518317,5857
10.519317,6385
10.520319,7265
10.521316,5585
10.522317,3984
10.523318,9490
10.524316,8177
10.525317,9122
10.526317,7969
10.527318,15955
10.528317,20773
10.529317,4561
10.530318,7649
10.531315,7265
10.532317,5345
10.533318,8194
10.534317,7953
10.535319,7425
10.536317,4897
10.537317,7729
10.538317,4817
10.539319,4161
10.540331,3392
10.541319,4225
10.542317,5505
10.543317,8882
10.544317,9042
10.545318,7553
10.546319,6993
10.547318,4401
10.548317,12162
10.549317,4177
10.550319,14355
10.551316,8626
10.552316,8065
10.553319,8177
10.554317,8754
10.555317,34776
10.556318,13619
10.557317,19268
10.558318,19972
10.559317,6817
10.560317,5153
10.561318,11410
10.562316,5937
10.563317,4321
10.564319,18196
10.565317,29015
10.566318,41066
10.567317,21781
10.568319,5825
10.569316,12162
10.570317,12098
10.571317,9314
10.572316,6209
10.573318,8033
10.574318,13315
10.575315,5537
10.576316,7089
10.577317,13395
10.578317,4609
10.579315,8177
10.580319,7441
10.581317,6065
10.582318,7233
10.583317,5633
10.584317,10290
10.585318,4497
10.586317,5841
10.587315,17924
10.588315,14259
10.589318,5425
10.590317,8658
10.591317,8882
10.592317,8498
10.593315,5889
10.594318,7249
10.595319,12771
10.596316,18772
10.597317,7745
10.598317,10546
10.599316,9938
10.600317,4657
10.601316,6353
10.602318,4721
10.603317,5361
10.604332,3472
10.605323,4177
10.606316,4769
10.607316,4865
10.608318,7937
10.609319,4833
10.610318,9442
10.611317,6833
10.612317,5409
10.613316,4113
10.614316,9794
10.615318,4529
10.616317,4257
10.617317,7377
10.618319,8386
10.619318,4753
10.620317,4257
10.621318,12307
10.622317,6673
10.623317,8177
10.624318,6737
10.625316,5729
10.626317,6801
10.627317,6593
10.628319,4913
10.629319,8450
10.630315,5393
10.631317,4689
10.632318,4641
10.633316,5345
10.634315,7505
10.635317,5457
10.636317,5809
10.637316,4577
10.638318,4593
10.639317,7393
10.640316,5601
10.641317,14275
10.642319,6497
10.643317,6321
10.644319,7825
10.645319,3744
10.809506,4993
10.810297,4561
10.810864,5025
10.811406,4737
10.811933,4000
10.812539,5681
10.813072,4561
10.813609,5089
10.814138,6369
10.814691,6673
10.815222,5185
10.815759,4097
10.816296,6417
10.816835,10210
10.817377,11762
10.817913,6849
10.818452,4913
10.819317,8882
10.820319,4785
10.821318,8177
10.822318,13731
10.823318,8177
10.824317,4289
10.825317,5377
10.826318,3920
10.827318,4273
10.828317,4161
10.829318,6529
10.830319,5857
10.831315,4561
10.832317,4753
10.833319,4016
10.834319,4705
10.835315,4273
10.836317,6177
10.837317,5841
10.838317,5649
10.839316,4753
10.840315,6833
10.841319,4561
10.842316,7825
10.843317,4961
10.844317,4177
10.845317,7713
10.846320,4369
10.847317,4048
10.848319,5185
10.849316,4609
10.850316,5057
10.851317,8113
10.852318,5361
10.853318,4897
10.854316,3904
10.855315,4161
10.856318,4064
10.857317,4080
10.858317,6529
10.859317,4865
10.860338,4977
10.861318,5057
10.862317,7409
10.863320,4769
10.864319,3888
10.865317,4305
10.866319,4385
10.867317,5729
10.868316,5969
10.869318,5425
10.870317,16916
10.871317,5649
10.872315,4833
10.873319,4801
10.874317,5777
10.875318,5617
10.876318,6305
10.877317,6161
10.878318,13331
10.879318,5761
10.880318,5313
10.881318,6305
10.882320,3760
10.883316,7697
10.884316,5457
10.885318,5153
10.886319,5841
10.887316,5681
10.888317,3904
10.889318,5665
10.890318,8498
10.891319,6273
10.892316,4913
10.893317,6801
10.894315,5057
10.895316,7809
10.896316,4497
10.897319,4161
10.898317,4145
10.899317,4337
10.900316,8242
10.901320,7249
10.902317,4113
10.903317,4881
10.904317,4961
10.905318,4769
10.906319,3920
10.907317,7457
10.908319,6417
10.909319,4481
10.910317,5441
10.911317,5921
10.912319,4016
10.913317,4080
10.914317,6753
10.915318,7713
10.916317,4785
10.917317,10658
10.918317,10146
10.919318,7169
10.920319,6609
10.921319,4609
10.922316,7025
10.923317,4305
10.924334,5041
10.925323,3632
10.926319,4097
10.927317,4929
10.928316,4289
10.929317,4305
10.930318,6673
10.931316,6001
10.932317,13651
10.933319,5169
10.934316,10018
10.935317,5169
10.936317,6529
10.937316,4657
10.938317,4353
10.939317,4353
10.940319,4449
10.941317,4353
10.942319,6273
10.943318,4000
10.944316,7233
10.945318,7121
10.946318,4737
10.947317,5185
10.948317,5217
10.949317,5217
10.950317,6721
10.951319,4673
10.952318,4801
10.953318,5297
10.954317,5633
10.955319,4145
10.956316,4513
10.957317,5681
10.958317,7713
10.959317,4881
10.960318,5089
10.961317,5425
10.962318,4625
10.963316,6209
10.964318,7825
10.965315,4961
10.966317,4257
10.967318,10642
10.968317,4641
10.969317,5809
10.970317,4064
10.971315,8754
10.972318,6257
10.973318,6113
10.974318,5073
10.975317,4449
10.976318,8177
10.977315,4193
10.978316,4753
10.979316,5585
10.980318,4385
10.981316,4737
10.982317,4673
10.983319,4177
10.984318,4737
10.985317,4401
10.986314,8177
10.987317,4241
10.988332,5041
10.989322,4753
10.990318,5345
10.991318,5969
10.992317,5329
10.993317,5553
10.994319,7249
10.995319,5985
10.996316,4673
10.997319,5729
10.998316,4609
10.999316,8097
11.000317,5169
11.001316,5009
11.153973,4289
11.154924,4801
11.155639,5505
11.156328,6017
11.157011,3536
11.157762,3984
11.158447,4673
11.159131,3920
11.159821,7425
11.160528,6817
11.161211,3456
11.161899,6113
11.162585,4945
11.163273,6849
11.163961,8177
11.164654,5761
11.165347,4257
11.166057,3728
11.166751,5969
11.167444,4865
11.168134,5761
11.168827,5617
11.169525,3936
11.170216,3136
11.170913,5073
11.171608,5361
11.172315,7985
11.173317,4353
11.174318,5297
11.175317,4289
11.176316,3584
11.177317,6401
11.178318,6977
11.179319,5281
11.180415,4048
11.181323,8370
11.182321,9842
11.183315,7201
11.184317,4064
11.185317,5681
11.186315,3248
11.187319,4048
11.188319,5185
11.189318,5073
11.190320,4801
11.191319,8081
11.192317,6289
11.193318,6049
11.194316,6401
11.195319,8770
11.196317,4545
11.197318,4449
11.198317,5057
11.199317,5569
11.200316,6241
11.201317,7089
11.202317,8738
11.203317,4657
11.204317,6737
11.205317,5137
11.206318,4225
11.207315,4048
11.208317,5073
11.209319,4689
11.210320,5297
11.211316,3920
11.212317,4913
11.213317,4289
11.214314,7505
11.215319,10162
11.216317,6145
11.217315,12867
11.218317,7889
11.219317,17492
11.220316,4753
11.221315,3472
11.222317,5985
11.223319,4785
11.224318,4241
11.225317,3856
11.226317,4753
11.227318,4481
11.228316,3424
11.229317,4801
11.230318,4721
11.231318,5441
11.232317,5393
11.233317,7265
11.234316,4273
11.235318,4369
11.236317,6417
11.237315,6961
11.238317,5265
11.239317,4113
11.240317,3456
11.241317,5441
11.242317,3888
11.243315,3776
11.244332,4129
11.245326,5553
11.246321,8754
11.247319,7873
11.248316,6625
11.249317,3984
11.250317,3552
11.251317,7521
11.252317,7649
11.253317,5985
11.254319,6065
11.255317,4529
11.256318,4177
11.257317,4225
11.258317,8626
11.259316,9058
11.260315,4801
11.261317,4609
11.262317,4449
11.263317,4865
11.264317,4321
11.265317,3792
11.266319,6481
11.267315,5857
11.268317,6321
11.269318,5505
11.270317,5729
11.271317,6433
11.272317,7361
11.273318,4481
11.274317,3488
11.275317,5505
11.276317,5217
11.277318,5505
11.278317,5377
11.279317,6721
11.280317,3776
11.281317,4129
11.282317,4385
11.283319,5537
11.284318,3984
11.285317,5633
11.286316,3888
11.287315,4417
11.288316,5441
11.289318,5057
11.290318,5409
11.291317,5457
11.292317,6385
11.293316,4945
11.294318,5169
11.295316,3072
11.296315,3872
11.297318,7313
11.298319,4673
11.299317,4737
11.300317,5729
11.301318,5281
11.302317,4753
11.303318,4657
11.304317,4881
11.305319,5041
11.306317,5665
11.307316,2912
11.308331,4497
11.309319,7505
11.310319,7041
11.311317,3424
11.312317,4289
11.313317,4145
11.314317,4369
11.315316,5265
11.316318,4353
11.317317,6417
11.318316,3648
11.319317,3952
11.320317,4353
11.321319,8097
11.322319,4385
11.323317,4177
11.324318,4161
11.325315,6801
11.326316,4689
11.327320,6241
11.328318,4817
11.329316,4257
11.330317,4529
11.331317,3744
11.332317,6289
11.333317,5729
11.334319,4865
11.335318,4257
11.336317,3600
11.337316,5729
11.338317,7617
11.339318,5441
11.340316,4193
11.341318,4161
11.342316,3296
11.343317,5025
11.344314,5505
11.345317,3984
11.464585,6657
11.465082,6433
11.465373,6625
11.465628,4705
11.465874,4257
11.466142,3200
11.466394,4401
11.466640,3968
11.466886,3872
11.467147,4481
11.467396,4929
11.468317,5601
11.469316,6929
11.470317,3584
11.471316,4129
11.472317,4161
11.473316,4000
11.474320,4097
11.475317,4801
11.476317,8642
11.477317,5441
11.478317,4016
11.479318,3024
11.480317,3984
11.481318,10610
11.482315,4321
11.483317,5921
11.484316,5345
11.485319,3584
11.486315,3456
11.487317,4961
11.488316,3728
11.489315,5089
11.490317,4769
11.491319,9122
11.492319,4929
11.493316,3312
11.494317,6561
11.495317,7377
11.496318,5649
11.497319,4064
11.498318,4865
11.499317,5729
11.500342,5521
11.501324,4385
11.502318,3552
11.503318,3840
11.504317,6401
11.505318,4497
11.506317,4705
11.507317,4705
11.508317,4945
11.509316,4897
11.510316,3120
11.511318,6049
11.512319,6081
11.513318,3392
11.514316,7121
11.515317,9122
11.516318,3504
11.517317,3472
11.518317,5617
11.519317,3392
11.520320,3616
11.521314,4257
11.522317,5697
11.523318,4993
11.524317,5905
11.525318,3456
11.526316,4145
11.527317,4305
11.528315,3248
11.529317,7041
11.530317,7441
11.531317,3680
11.532318,3968
11.533315,5041
11.534317,4865
11.535317,10850
11.536315,7809
11.537317,6737
11.538317,3824
11.539315,3424
11.540318,5009
11.541318,5857
11.542318,3888
11.543316,3984
11.544318,3424
11.545318,5505
11.546318,4545
11.547316,4064
11.548318,4321
11.549318,3936
11.550316,4000
11.551317,5553
11.552317,4881
11.553318,4849
11.554315,3600
11.555317,3936
11.556317,8177
11.557316,5217
11.558315,4177
11.559318,3440
11.560318,6065
11.561318,8450
11.562316,3120
11.563317,5969
11.564339,5265
11.565326,4289
11.566321,4929
11.567317,3472
11.568319,4401
11.569319,3376
11.570316,4337
11.571317,5777
11.572316,8418
11.573316,6625
11.574317,3728
11.575317,3856
11.576318,3152
11.577317,5457
11.578317,6033
11.579317,3840
11.580317,3712
11.581318,8177
11.582316,7201
11.583319,3088
11.584317,6033
11.585317,6657
11.586317,4881
11.587317,4529
11.588317,4833
11.589317,3600
11.590318,3824
11.591316,3792
11.592316,5153
11.593317,3360
11.594318,6945
11.595318,4369
11.596318,3968
11.597318,4016
11.598318,3344
11.599316,7105
11.600318,4016
11.601317,4449
11.602317,5553
11.603318,5313
11.604317,5585
11.605318,3168
11.606320,4865
11.607319,6209
11.608316,4961
11.609317,4385
11.610315,4129
11.611317,4048
11.612317,6097
11.613318,4048
11.614318,4785
11.615317,3344
11.616318,3120
11.617316,3344
11.618315,4929
11.619318,4673
11.620317,5057
11.621317,4801
11.622317,7329
11.623317,8338
11.624318,8338
11.625318,3648
11.626317,4305
11.627314,4161
11.628331,4769
11.629320,4016
11.630317,3424
11.631317,4209
11.632318,4801
11.633317,5585
11.634317,3856
11.635316,5089
11.636317,5969
11.637318,3920
11.638316,3392
11.639316,3008
11.640316,3744
11.641319,4289
11.642317,3840
11.643315,7633
11.644318,6625
11.645319,3776
11.646318,5553
11.647317,4625
11.648317,4513
11.649318,5585
11.650317,4625
11.651319,7873
11.652316,4833
11.653316,3904
11.654315,3472
11.655319,4625
11.656317,5681
11.812616,6145
11.813263,6993
11.813709,5601
11.814111,5857
11.814516,6145
11.814978,4865
11.815380,4257
11.815778,6609
11.816176,4913
11.816597,5425
11.816998,4097
11.817400,4401
11.817802,4241
11.818319,5057
11.819316,5969
11.820388,4817
11.821321,3520
11.822320,4257
11.823317,14307
11.824317,5153
11.825319,4753
11.826319,3536
11.827315,3536
11.828319,5057
11.829318,3632
11.830316,4609
11.831316,3984
11.832319,3808
11.833319,4048
11.834319,4897
11.835317,4000
11.836317,5521
11.837318,4113
11.838316,5345
11.839317,8177
11.840317,5761
11.841317,5857
11.842319,5521
11.843317,3696
11.844316,4865
11.845316,4113
11.846317,3744
11.847319,8546
11.848317,3584
11.849317,3552
11.850317,5009
11.851317,4785
11.852318,5329
11.853319,4481
11.854319,4337
11.855316,4145
11.856318,3344
11.857316,8194
11.858318,4545
11.859316,4945
11.860318,4529
11.861318,3584
11.862318,5169
11.863318,8418
11.864317,5329
11.865317,6721
11.866319,4097
11.867319,3408
11.868317,6593
11.869318,4000
11.870318,5025
11.871318,3632
11.872319,3936
11.873316,6561
11.874316,7201
11.875317,3856
11.876318,4913
11.877317,3856
11.878317,3456
11.879318,5489
11.880318,4305
11.881317,4289
11.882318,4113
11.883315,6097
11.884389,5809
11.885332,4945
11.886321,3424
11.887317,4048
11.888318,5889
11.889317,5441
11.890317,3728
11.891317,4817
11.892317,6593
11.893318,4161
11.894317,4737
11.895318,3856
11.896317,3328
11.897318,6289
11.898319,3728
11.899317,4433
11.900317,3744
11.901318,3424
11.902318,6705
11.903319,4241
11.904318,3072
11.905317,5345
11.906316,4016
11.907316,5697
11.908316,8226
11.909317,6033
11.910318,5553
11.911316,4097
11.912318,4481
11.913318,3392
11.914316,4801
11.915315,4129
11.916316,5793
11.917318,4000
11.918317,3760
11.919317,4225
11.920318,10962
11.921319,6065
11.922317,7105
11.923315,4449
11.924316,4945
11.925315,3136
11.926317,5185
11.927317,5713
11.928317,4721
11.929317,3632
11.930316,3808
11.931317,6609
11.932315,4080
11.933319,6065
11.934316,4769
11.935317,7073
11.936317,5969
11.937316,3664
11.938319,3488
11.939319,3600
11.940317,4945
11.941317,3840
11.942318,3536
11.943318,4353
11.944318,6177
11.945316,4417
11.946317,3936
11.947315,5569
11.948334,4241
11.949322,3936
11.950318,5697
11.951319,6449
11.952316,3552
11.953315,4929
11.954314,4257
11.955317,4801
11.956316,5057
11.957317,3600
11.958317,3568
11.959317,5377
11.960319,5617
11.961316,4321
11.962317,7217
11.963318,4753
11.964317,3872
11.965316,5569
11.966317,6897
11.967318,4753
11.968316,3552
11.969319,4321
11.970317,4321
11.971318,7249
11.972317,7105
11.973318,6145
11.974317,4289
11.975317,5025
11.976317,6433
11.977316,3616
11.978318,4113
11.979315,3728
11.980317,5345
11.981315,4433
11.982316,5153
11.983315,4881
11.984316,5169
11.985317,5921
11.986318,7393
11.987319,5777
11.988317,4833
11.989317,5889
11.990315,3936
11.991317,4241
11.992316,8177
11.993317,3408
11.994316,5425
11.995316,6193
11.996317,4865
11.997317,4305
11.998317,4577
11.999315,4529
12.000317,6849
12.001317,3904
12.002316,3632
12.003319,4401
12.004320,4929
12.161536,4529
12.162337,4833
12.162912,4353
12.163468,5457
12.164021,6225
12.164643,5249
12.165193,3584
12.165747,3472
12.166304,4385
12.166874,4577
12.167430,4849
12.167984,4545
12.168542,3536
12.169098,3520
12.169654,4657
12.170214,4417
12.170773,3984
12.171355,4881
12.172317,3424
12.173317,6449
12.174317,6273
12.175316,5121
12.176315,4048
12.177317,4545
12.178317,4417
12.179317,4129
12.180316,5425
12.181317,6369
12.182318,4353
12.183317,6097
12.184318,5729
12.185317,5681
12.186318,5025
12.187316,4929
12.188318,3872
12.189318,4097
12.190317,3872
12.191317,3840
12.192318,3840
12.193317,4817
12.194319,6081
12.195317,7633
12.196317,6049
12.197318,5073
12.198317,4000
12.199315,4577
12.200317,5297
12.201318,3936
12.202317,3968
12.203317,3664
12.204336,4305
12.205320,5889
12.206320,5425
12.207318,3872
12.208319,5937
12.209317,4705
12.210317,4545
12.211319,3680
12.212319,5025
12.213318,4289
12.214317,5345
12.215317,6305
12.216315,5617
12.217319,5489
12.218319,4785
12.219318,3792
12.220318,4000
12.221317,6545
12.222316,5217
12.223317,5185
12.224319,6417
12.225319,4193
12.226318,3920
12.227316,4769
12.228317,4961
12.229316,4929
12.230317,4145
12.231317,5265
12.232317,5153
12.233319,5569
12.234317,3872
12.235316,5377
12.236317,4193
12.237317,4097
12.238317,3664
12.239317,3936
12.240317,4305
12.241317,5057
12.242318,5681
12.243316,4321
12.244315,8578
12.245317,5409
12.246317,5185
12.247317,7073
12.248318,4993
12.249317,4593
12.250318,5633
12.251316,6401
12.252315,3984
12.253319,3808
12.254316,4913
12.255317,5169
12.256316,4881
12.257315,5425
12.258316,4465
12.259316,4385
12.260319,6017
12.261315,4929
12.262319,4225
12.263316,6577
12.264319,4321
12.265317,4513
12.266319,6145
12.267316,4305
12.268334,5777
12.269326,3776
12.270317,3456
12.271317,6337
12.272316,4257
12.273317,4337
12.274315,4289
12.275317,3760
12.276315,7633
12.277317,4097
12.278318,3600
12.279315,9698
12.280318,4417
12.281317,3872
12.282316,4145
12.283318,3520
12.284317,4737
12.285318,5585
12.286317,5089
12.287318,4993
12.288317,5649
12.289317,4129
12.290317,4401
12.291319,3408
12.292316,5377
12.293318,5441
12.294316,4257
12.295318,4801
12.296318,3840
12.297317,4497
12.298317,3984
12.299316,4016
12.300317,4673
12.301317,4865
12.302317,5553
12.303316,4000
12.304318,4080
12.305317,4048
12.306317,3872
12.307316,4032
12.308317,5473
12.309317,5825
12.310318,5297
12.311316,5281
12.312318,5073
12.313316,5601
12.314317,5473
12.315316,5825
12.316318,5185
12.317317,4321
12.318316,3952
12.319317,3472
12.320319,3648
12.321319,4705
12.322315,4353
12.323318,4897
12.324318,5697
12.325317,3664
12.326318,3648
12.327317,4753
12.328316,6241
12.329317,5825
12.330316,5297
12.331319,4673
12.332327,4481
12.333322,5329
12.334320,4369
12.335317,4513
12.336319,4305
12.337319,4337
12.338317,4769
12.339315,4785
12.340318,5761
12.341317,5425
12.342318,4337
12.343318,3984
12.344315,4513
12.345316,4433
12.346317,5825
12.347319,3952
12.348320,4497
12.349315,5617
12.350318,4609
12.351316,4993
12.352317,5985
12.353318,5201
12.502614,4737
12.503585,4945
12.504327,5009
12.505041,5201
12.505753,4513
12.506542,4064
12.507251,5089
12.507963,4961
12.508676,4817
12.509407,5713
12.510124,5969
12.510838,5169
12.511555,5073
12.512268,3920
12.512986,4193
12.513705,6033
12.514426,3712
12.515168,5073
12.515886,6145
12.516609,4801
12.517329,4209
12.518048,6289
12.518774,5281
12.519496,4529
12.520218,5889
12.520951,4865
12.521682,4817
12.522410,4577
12.523315,4609
12.524337,5729
12.525319,5425
12.526315,4689
12.527317,3888
12.528317,4048
12.529317,5969
12.530318,6737
12.531316,7089
12.532317,5665
12.533317,3856
12.534317,4273
12.535316,4048
12.536317,4609
12.537315,6369
12.538316,4657
12.539317,4273
12.540317,4064
12.541316,6417
12.542317,4273
12.543317,4369
12.544318,5249
12.545319,4625
12.546315,4449
12.547318,5185
12.548314,5921
12.549317,6289
12.550316,6465
12.551318,8113
12.552318,4417
12.553317,3984
12.554317,4641
12.555317,4769
12.556316,4881
12.557317,3776
12.558317,4961
12.559317,4529
12.560317,3888
12.561316,4993
12.562317,5025
12.563318,4353
12.564317,6545
12.565317,4945
12.566317,4705
12.567317,5073
12.568317,4833
12.569318,4449
12.570317,4929
12.571318,4849
12.572318,4769
12.573316,4161
12.574319,4369
12.575318,3888
12.576317,5889
12.577317,5057
12.578318,4737
12.579317,5457
12.580317,5889
12.581317,4865
12.582317,4625
12.583316,4785
12.584318,5841
12.585317,5377
12.586317,4945
12.587318,5057
12.588333,5009
12.589325,4641
12.590322,5137
12.591317,4529
12.592318,5137
12.593317,4048
12.594319,4321
12.595316,4129
12.596318,5409
12.597318,6273
12.598319,5137
12.599317,4913
12.600317,4657
12.601317,5041
12.602317,5025
12.603318,5057
12.604318,3840
12.605316,5537
12.606319,4865
12.607318,4593
12.608317,4321
12.609315,4145
12.610317,3792
12.611317,5345
12.612317,6625
12.613316,5585
12.614316,4657
12.615318,5137
12.616319,5041
12.617317,4849
12.618317,4529
12.619320,4225
12.620318,4193
12.621317,5505
12.622318,5537
12.623318,5073
12.624317,5265
12.625316,4833
12.626316,4801
12.627317,4561
12.628317,6161
12.629316,4577
12.630318,5329
12.631315,5073
12.632315,4625
12.633317,4129
12.634315,4577
12.635318,4737
12.636317,5425
12.637315,5521
12.638317,4753
12.639315,5425
12.640317,4945
12.641317,4449
12.642317,5281
12.643319,4961
12.644317,5697
12.645318,3904
12.646317,4032
12.647317,5121
12.648319,4193
12.649317,4129
12.650317,4897
12.660962,4321
12.661208,2704
12.661431,4369
12.661649,4032
12.661860,4817
12.662074,3872
12.662290,5329
12.662508,4993
12.662724,4016
12.662942,4529
12.663318,4321
12.664319,5041
12.665317,4417
12.666317,4401
12.667317,5153
12.668317,5441
12.669318,4417
12.670318,4625
12.671318,5985
12.672318,5009
12.673317,5169
12.674317,4785
12.675317,4481
12.676317,6577
12.677317,4641
12.678317,4337
12.679317,5505
12.680317,5649
12.681318,4433
12.682317,4113
12.683316,5073
12.684317,5521
12.685317,5793
12.686319,4129
12.687315,4529
12.688316,4929
12.689318,3888
12.690318,4321
12.691318,4401
12.692318,5537
12.693319,4289
12.694318,5025
12.695317,27142
12.696318,4785
12.808531,4705
12.809074,4000
12.809421,4353
12.809728,4577
12.810022,4881
12.810388,5809
12.810679,4385
12.810969,4449
12.811263,5697
12.811580,4449
12.811874,4241
12.812317,4625
12.813318,4657
12.814317,4945
12.815317,5153
12.816318,4945
12.817315,5329
12.818319,5473
12.819317,4577
12.820316,5697
12.821317,5185
12.822319,4881
12.823317,4097
12.824320,4321
12.825315,4593
12.826317,4705
12.827317,4817
12.828317,4449
12.829318,4593
12.830319,5921
12.831317,5905
12.832318,4657
12.833316,4785
12.834317,4385
12.835316,5329
12.836317,6177
12.837319,4561
12.838318,4641
12.839318,4561
12.840320,4641
12.841317,5249
12.842317,5073
12.843315,4529
12.844347,3888
12.845326,5633
12.846321,4145
12.847318,5937
12.848318,7281
12.849317,4977
12.850316,4817
12.851319,4593
12.852317,6049
12.853317,4337
12.854316,8081
12.855318,7313
12.856315,5537
12.857318,4305
12.858319,5137
12.859317,4753
12.860319,4865
12.861317,6145
12.862317,4833
12.863319,4529
12.864318,3936
12.865317,4545
12.866317,5297
12.867320,7313
12.868319,5889
12.869318,5057
12.870318,6577
12.871316,5889
12.872317,4497
12.873317,4945
12.874315,4113
12.875316,4385
12.876317,6465
12.877319,5905
12.878317,6161
12.879315,5569
12.880319,4673
12.881319,4369
12.882319,5681
12.883318,6481
12.884317,6945
12.885316,4673
12.886317,4433
12.887317,5665
12.888320,4305
12.889319,4048
12.890316,5825
12.891317,4929
12.892316,5505
12.893318,5169
12.894319,4817
12.895318,4225
12.896318,4193
12.897317,5185
12.898316,4961
12.899318,7457
12.900318,6657
12.901317,5233
12.902316,5601
12.903317,5393
12.904317,4945
12.905317,4497
12.906317,6161
12.907318,6337
12.908334,5153
12.909320,5889
12.910317,5073
12.911318,4417
12.912316,4273
12.913317,4993
12.914317,4913
12.915316,5217
12.916316,5905
12.917317,4625
12.918318,4929
12.919315,5025
12.920317,5505
12.921316,5537
12.922317,4625
12.923319,4689
12.924316,5473
12.925317,5265
12.926318,5377
12.927317,5169
12.928317,4673
12.929314,4993
12.930318,5217
12.931318,5617
12.932318,6305
12.933317,4145
12.934317,4289
12.935317,4273
12.936317,5057
12.937317,4689
12.938319,5041
12.939316,4961
12.940316,6465
12.941316,5265
12.942317,4689
12.943317,4161
12.944317,4048
12.945317,4241
12.946317,4353
12.947317,5521
12.948317,7185
12.949318,6177
12.950318,4737
12.951317,4753
12.952317,3984
12.953318,4769
12.954317,5537
12.955315,5441
12.956317,4705
12.957317,4897
12.958318,4273
12.959315,4897
12.960318,6289
12.961317,4897
12.962315,4401
12.963319,5665
12.964315,7489
12.965319,5089
12.966317,4913
12.967318,4625
12.968316,5489
12.969318,5409
12.970316,5345
12.971317,4657
12.972332,4064
12.973321,4401
12.974317,4833
12.975316,4881
12.976317,5777
12.977316,5281
12.978318,4945
12.979318,6033
12.980318,6257
12.981315,5665
12.982317,5761
12.983317,5121
12.984317,6417
12.985315,4673
12.986318,4433
12.987318,4577
12.988317,4577
12.989317,4000
12.990316,5249
12.991317,4385
12.992315,4385
12.993319,8274
12.994316,5889
12.995319,6305
12.996318,6673
12.997318,5201
12.998315,5329
12.999318,5553
13.000318,5025
13.158513,4337
13.159217,4016
13.159713,5137
13.160166,4897
13.160622,4305
13.161134,3792
13.161585,4097
13.162032,4609
13.162482,5041
13.162945,4833
13.163396,5137
13.163842,4865
13.164458,4449
13.164926,4945
13.165388,5697
13.166319,5105
13.167316,5777
13.168316,5345
13.169317,4145
13.170317,4689
13.171317,5905
13.172318,6353
13.173317,4753
13.174320,4881
13.175320,5377
13.176317,4785
13.177315,5393
13.178317,5537
13.179318,5505
13.180315,4929
13.181318,5841
13.182317,6193
13.183317,5825
13.184318,5921
13.185318,4929
13.186315,4449
13.187317,4961
13.188317,5729
13.189319,4689
13.190316,5361
13.191318,5009
13.192315,7457
13.193317,5777
13.194319,4369
13.195316,4529
13.196318,4561
13.197316,5281
13.198315,6337
13.199318,5473
13.200319,5425
13.201319,6177
13.202317,6273
13.203317,4641
13.204317,5697
13.205317,4673
13.206318,4593
13.207319,6673
13.208319,5217
13.209316,5649
13.210317,5121
13.211316,5265
13.212319,6369
13.213318,5665
13.214316,5649
13.215315,5105
13.216319,4401
13.217316,4769
13.218317,6209
13.219318,5713
13.220317,6241
13.221318,4865
13.222317,6177
13.223317,6001
13.224317,5649
13.225318,4833
13.226318,4865
13.227317,4833
13.228332,4064
13.229324,7057
13.230321,5809
13.231318,5697
13.232316,5969
13.233319,4369
13.234315,4609
13.235319,4881
13.236316,6145
13.237317,5201
13.238318,5777
13.239317,5793
13.240317,4737
13.241318,5393
13.242317,5537
13.243316,5521
13.244318,4353
13.245317,4769
13.246317,6993
13.247317,5569
13.248317,5377
13.249318,4865
13.250317,5313
13.251317,5089
13.252317,5921
13.253318,5329
13.254317,5297
13.255318,5569
13.256318,5953
13.257316,6209
13.258315,4865
13.259316,6065
13.260317,5457
13.261318,4705
13.262318,5313
13.263317,5409
13.264317,5281
13.265317,5393
13.266316,5377
13.267319,4913
13.268317,5505
13.269318,4785
13.270319,4401
13.271315,7617
13.272317,5777
13.273316,5697
13.274317,5057
13.275317,4929
13.276317,4961
13.277320,5441
13.278317,6337
13.279317,6561
13.280317,7089
13.281316,5681
13.282317,4529
13.283317,4689
13.284317,5377
13.285317,4497
13.286317,5585
13.287317,6017
13.288317,5009
13.289319,4993
13.290317,4785
13.291318,5137
13.292337,4545
13.293322,5665
13.294319,7457
13.295319,5121
13.296318,4977
13.297317,5137
13.298318,6433
13.299316,5649
13.300317,6209
13.301317,5217
13.302317,5969
13.303315,6849
13.304319,4641
13.305316,4737
13.306317,5665
13.307317,6481
13.308316,5441
13.309317,5841
13.310317,4753
13.311319,4625
13.312317,5041
13.313316,6209
13.314318,6033
13.315317,5841
13.316319,6353
13.317318,6049
13.318319,4785
13.319315,4865
13.320317,5649
13.321318,6545
13.322318,5249
13.323317,4689
13.324317,4945
13.325317,5393
13.326316,4865
13.327317,5713
13.328317,6081
13.329317,5345
13.330319,5153
13.331317,6817
13.332317,6977
13.333318,4673
13.334318,5441
13.335316,5089
13.336318,5009
13.337316,5697
13.338318,5537
13.339316,5313
13.340317,6289
13.341317,5777
13.342318,4577
13.343318,5457
13.344315,7793
13.345320,6353
13.346317,4737
13.347317,5793
13.348317,6065
13.349318,4801
13.350318,5217
13.505202,4433
13.506063,4513
13.506702,4609
13.507305,4305
13.507906,4881
13.508571,4657
13.509173,5425
13.509773,5473
13.510374,6241
13.510993,5825
13.511592,5169
13.512194,4993
13.512795,5313
13.513401,4737
13.514000,4385
13.514607,4289
13.515211,5505
13.515844,6177
13.516450,5201
13.517054,5505
13.517662,5057
13.518317,5121
13.519317,4561
13.520317,5249
13.521318,5697
13.522317,7185
13.523317,7569
13.524317,4993
13.525318,4577
13.526319,5441
13.527316,6033
13.528319,5633
13.529316,5425
13.530316,6193
13.531316,5649
13.532317,4833
13.533317,5249
13.534317,4817
13.535317,4481
13.536317,6241
13.537319,6049
13.538316,7249
13.539316,5137
13.540318,5249
13.541317,4801
13.542317,4801
13.543319,6737
13.544317,6049
13.545317,6305
13.546317,6497
13.547317,5505
13.548342,6353
13.549328,5697
13.550321,5777
13.551319,4625
13.552320,4433
13.553317,5857
13.554318,4881
13.555317,6673
13.556317,6177
13.557320,6033
13.558319,5617
13.559318,5793
13.560316,5553
13.561316,5921
13.562316,4865
13.563315,5169
13.564318,5665
13.565318,6337
13.566318,6193
13.567318,5457
13.568316,4785
13.569317,5825
13.570319,5857
13.571318,5457
13.572318,5521
13.573318,5649
13.574318,5137
13.575317,5329
13.576317,6193
13.577318,7297
13.578317,5377
13.579319,5649
13.580317,6241
13.581318,4785
13.582317,5649
13.583318,6321
13.584317,7201
13.585318,5649
13.586317,5009
13.587318,4833
13.588318,5697
13.589317,5057
13.590315,4865
13.591318,4897
13.592317,5457
13.593318,6113
13.594318,5921
13.595316,5633
13.596319,5313
13.597318,5777
13.598318,6145
13.599317,6305
13.600317,5313
13.601317,5937
13.602318,5761
13.603318,6193
13.604317,5793
13.605315,4897
13.606317,5809
13.607317,6161
13.608316,5665
13.609317,5697
13.610317,5761
13.611315,4769
13.612332,4337
13.613321,4673
13.614317,6337
13.615318,6193
13.616316,4977
13.617319,6609
13.618318,7073
13.619317,5809
13.620318,6273
13.621317,6929
13.622319,5697
13.623317,4929
13.624317,5153
13.625317,5297
13.626317,6993
13.627317,6049
13.628315,4016
13.629317,5073
13.630317,5905
13.631319,6769
13.632315,5473
13.633316,5249
13.634317,5633
13.635316,5873
13.636317,5633
13.637317,5713
13.638319,5313
13.639316,4865
13.640319,4817
13.641317,6657
13.642318,5713
13.643316,6049
13.644319,6177
13.645319,6881
13.646316,5825
13.647316,5521
13.648316,5329
13.649317,5473
13.650317,5073
13.651317,5745
13.652315,6769
13.653317,5713
13.654317,5777
13.655318,4865
13.656318,5297
13.657317,6337
13.658318,6305
13.659317,5153
13.660319,5281
13.661317,4913
13.662314,4048
13.663317,5729
13.664316,5857
13.665317,7265
13.666318,7457
13.667317,6305
13.668319,5793
13.669319,4705
13.670316,4961
13.671316,5217
13.672317,5729
13.673316,5585
13.674318,5553
13.675319,5329
13.676334,6657
13.677324,5265
13.678317,4881
13.679316,5681
13.680316,5505
13.681317,6289
13.682317,5777
13.683317,6913
13.684318,5025
13.685317,7329
13.686317,6161
13.687317,5393
13.688320,5377
13.689317,5393
13.690318,5329
13.691317,4945
13.692317,5201
13.693316,5393
13.694316,4913
13.695316,4337
13.696316,4513
13.852990,5089
13.854016,5057
13.854819,5921
13.855595,5969
13.856360,6401
13.857190,5169
13.857955,4161
13.858714,4417
13.859479,5217
13.860253,6353
13.861025,5633
13.861791,5153
13.862557,5553
13.863321,6177
13.864086,4177
13.864855,3984
13.865622,5249
13.866413,4353
13.867178,4993
13.868104,4993
13.868885,4385
13.869661,4129
13.870435,4113
13.871202,4817
13.871975,5009
13.872750,5329
13.873525,4929
13.874298,6193
13.875068,4881
13.875843,5505
13.876621,6113
13.877403,5073
13.878180,4481
13.878999,4897
13.879781,4561
13.880560,4897
13.881340,4945
13.882319,6193
13.883319,6193
13.884317,6833
13.885318,6177
13.886317,4000
13.887317,4433
13.888319,6225
13.889319,5841
13.890318,5265
13.891317,4193
13.892316,5841
13.893318,5361
13.894317,5617
13.895319,5281
13.896317,5217
13.897317,4769
13.898318,5153
13.899319,6049
13.900316,5377
13.901318,7169
13.902317,6017
13.903317,4993
13.904318,4929
13.905317,5137
13.906320,5649
13.907317,4609
13.908317,5889
13.909318,5393
13.919604,4625
13.919836,4321
13.920052,5409
13.920262,5249
13.920482,4881
13.920696,5553
13.920907,4897
13.921119,5665
13.921340,5889
13.921555,5585
13.922317,5553
13.923319,5729
13.924317,6673
13.925318,4913
13.926316,6033
13.927318,5073
13.928316,3872
13.929319,5825
13.930317,4433
13.931317,5649
