Tempo(s),EMG_Value
0.004916,4337
0.006407,2960
0.006792,3248
0.007766,3328
0.008757,3648
0.009756,3808
0.010756,4577
0.011756,3808
0.012754,3792
0.013754,3536
0.014756,4337
0.015756,3904
0.016758,3760
0.017757,4000
0.018757,4032
0.019755,3840
0.020758,3536
0.021758,4401
0.022756,4289
0.023757,3888
0.024756,3584
0.025757,4577
0.026757,3856
0.027754,3760
0.028754,4385
0.029757,5777
0.030758,3680
0.031758,4032
0.032756,3904
0.033757,4097
0.034756,5185
0.035782,4449
0.036765,4289
0.037759,3936
0.038756,3552
0.039756,3808
0.040756,3472
0.041756,4113
0.042756,4577
0.043755,4289
0.044756,3856
0.045756,3376
0.046758,3872
0.047755,3552
0.048758,5153
0.049756,3968
0.050755,5105
0.051756,4273
0.052755,4289
0.053757,4129
0.054756,3712
0.055757,3536
0.056756,4657
0.057757,3488
0.058757,4241
0.059753,3600
0.060758,3728
0.061756,3248
0.062758,3664
0.063755,3504
0.064759,3840
0.065756,3936
0.066757,4129
0.067754,3840
0.068756,3424
0.069758,4193
0.070757,4064
0.071757,3952
0.072757,4705
0.073756,3616
0.074757,3616
0.075756,3904
0.076757,3712
0.077758,3776
0.078757,4193
0.079758,3744
0.080756,3856
0.081756,3600
0.082757,3728
0.083756,4273
0.084758,4769
0.085758,3792
0.086756,4305
0.087757,3536
0.088756,3760
0.089757,3760
0.090757,3472
0.091756,4977
0.092757,4129
0.093757,3760
0.094756,3312
0.095756,3600
0.096756,4145
0.097758,5329
0.098756,3984
0.099774,4705
0.100764,3392
0.101758,4177
0.102758,5089
0.103757,3840
0.104754,3904
0.105756,5633
0.106756,3888
0.107757,3776
0.108756,4785
0.109757,4529
0.110758,3360
0.111758,3472
0.112756,3648
0.113758,3776
0.114756,4433
0.115755,4929
0.116756,4353
0.117758,3728
0.118757,3264
0.119755,3808
0.120757,6577
0.121754,4064
0.122755,4577
0.123755,5281
0.124755,6177
0.125757,3328
0.126756,4369
0.127757,3568
0.128756,3824
0.129756,3888
0.130758,3728
0.131758,4161
0.132756,4817
0.133757,3984
0.134757,4369
0.135757,3920
0.136755,3808
0.137757,3520
0.138755,3472
0.139755,3728
0.140756,4016
0.141755,2656
0.142754,3424
0.143756,4369
0.144755,4273
0.145757,4193
0.146757,3648
0.147755,3664
0.148756,4257
0.149755,4689
0.150759,4177
0.151756,3744
0.152755,3408
0.153757,3376
0.154758,3984
0.155754,3792
0.156756,4289
0.157756,3712
0.158757,3760
0.159757,3664
0.160755,3712
0.161756,3792
0.162755,4064
0.163771,3120
0.164761,3520
0.165758,4385
0.166759,3712
0.167758,3536
0.168757,4897
0.169758,3984
0.170756,3504
0.171757,4225
0.172757,4561
0.173756,4177
0.174756,4753
0.175754,3136
0.176758,3648
0.177756,5297
0.178756,3984
0.179754,2768
0.180756,4161
0.181756,4321
0.182756,3648
0.183757,3760
0.184756,3376
0.185756,3536
0.186756,3376
0.187755,4048
0.188758,3760
0.189756,3408
0.190758,4433
0.191755,3584
0.192756,3280
0.193756,3664
0.194757,4129
0.195756,3792
0.196756,3872
0.197756,4129
0.198756,3712
0.199756,3568
0.200758,4641
0.201758,4705
0.202754,3008
0.203756,3408
0.326762,3216
0.327371,3952
0.327776,3776
0.328150,3552
0.328521,3344
0.328962,3392
0.329331,2816
0.329705,3104
0.330080,3328
0.330467,4257
0.330849,2976
0.331228,3088
0.331606,3200
0.331992,3584
0.332756,4113
0.333757,2896
0.334758,4897
0.335757,3664
0.336757,4369
0.337756,3968
0.338757,4417
0.339757,3632
0.340756,2608
0.341755,5473
0.342757,3888
0.343755,3296
0.344757,4016
0.345758,4016
0.346755,3072
0.347756,2976
0.348755,2720
0.349755,3808
0.350755,3184
0.351758,3424
0.352755,3536
0.353758,3760
0.354756,3936
0.355756,3408
0.356778,3360
0.357762,3872
0.358759,4705
0.359755,2816
0.360756,3120
0.361757,3488
0.362757,3648
0.363756,2816
0.364755,4641
0.365756,3632
0.366755,3680
0.367755,2800
0.368755,3168
0.369756,3040
0.370758,5697
0.371757,3664
0.372757,6961
0.373754,4305
0.374756,3856
0.375758,4080
0.376755,2768
0.377757,4897
0.378756,2960
0.379757,3440
0.380757,3888
0.381756,3616
0.382756,2928
0.383756,4097
0.384757,3248
0.385756,3424
0.386755,3360
0.387757,3584
0.388754,3408
0.389756,3600
0.390755,3104
0.391754,3296
0.392756,3232
0.393754,3120
0.394756,3504
0.395757,3904
0.396758,4064
0.397755,3248
0.398756,2624
0.399756,3232
0.400756,3760
0.401758,3856
0.402758,3760
0.403756,2960
0.404758,3472
0.405755,3424
0.406758,3712
0.407757,3328
0.408755,3232
0.409754,3856
0.410756,3216
0.411756,2816
0.412757,3488
0.413758,3024
0.414758,3888
0.415756,3216
0.416757,3712
0.417757,2992
0.418757,4513
0.419775,5265
0.420765,3920
0.421756,2960
0.422758,3744
0.423755,3280
0.424754,2640
0.425756,2912
0.426756,2992
0.427756,3328
0.428756,5009
0.429754,3648
0.430757,4609
0.431758,3152
0.432757,3168
0.433754,4737
0.434757,3104
0.435757,3072
0.436754,4113
0.437756,2992
0.438757,3296
0.439756,2752
0.440756,2784
0.441758,5169
0.442758,3728
0.443758,3600
0.444756,2800
0.445756,3344
0.446758,3776
0.447756,3152
0.448756,5681
0.449755,3264
0.450756,3840
0.451756,3648
0.452756,2720
0.453755,2992
0.454758,3232
0.455756,4385
0.456758,5265
0.457755,2928
0.458756,2880
0.459756,3680
0.460756,2976
0.461756,3024
0.462755,3056
0.463754,3600
0.464756,4321
0.465757,2896
0.466757,3200
0.467755,3184
0.468756,2736
0.469756,2960
0.470755,4080
0.471755,3728
0.472756,3024
0.473755,3904
0.474757,2784
0.475757,2736
0.476758,4048
0.477758,3312
0.478756,3888
0.479757,2688
0.480756,3424
0.481756,3728
0.482755,3072
0.483774,3216
0.484759,3744
0.485757,3152
0.486756,3376
0.487757,3120
0.488758,3408
0.489757,3328
0.490757,3664
0.491756,3488
0.492756,3328
0.493757,2576
0.494755,2448
0.495754,5473
0.496756,3408
0.497757,3648
0.498755,3840
0.499756,2992
0.500755,2880
0.501756,3344
0.502755,3664
0.503754,2992
0.504756,2656
0.505758,3392
0.506757,4129
0.507756,3536
0.508758,4097
0.509758,2864
0.510755,3040
0.511756,4032
0.512757,2992
0.513758,3248
0.514756,5441
0.515755,2848
0.516758,3024
0.517756,3120
0.676609,3152
0.677422,4641
0.677999,4032
0.678531,4080
0.679060,3632
0.679651,3008
0.680182,2624
0.680705,2720
0.681239,3344
0.681788,3968
0.682313,5921
0.682845,5393
0.683372,5697
0.683907,3936
0.684435,4129
0.684969,2992
0.685497,4225
0.686055,2784
0.686756,3440
0.687755,2800
0.688757,2880
0.689756,3360
0.690757,3888
0.691756,4417
0.692757,3504
0.693756,3072
0.694757,3840
0.695757,2720
0.696754,2480
0.697755,2688
0.698755,3008
0.699758,3120
0.700756,4225
0.701755,4273
0.702758,2752
0.703756,2448
0.704758,3200
0.705758,2944
0.706758,2848
0.707754,2736
0.708755,3600
0.709756,2720
0.710756,4609
0.711758,4337
0.712755,3936
0.713756,3504
0.714754,3536
0.715756,3248
0.716757,4641
0.717756,3120
0.718753,3376
0.719754,3664
0.720756,3360
0.721754,3120
0.722757,2896
0.723756,2624
0.724756,3472
0.725757,2960
0.726757,3200
0.727756,3888
0.728755,3888
0.729756,3792
0.730756,3008
0.731756,2752
0.732756,3152
0.733756,2736
0.734755,2880
0.735756,2592
0.736754,3152
0.737758,2624
0.738756,2496
0.739756,4032
0.740777,4032
0.741763,3872
0.742759,3488
0.743756,2912
0.744754,4161
0.745754,3904
0.746756,3184
0.747758,3072
0.748756,2576
0.749756,2832
0.750757,4289
0.751756,3680
0.752757,3312
0.753755,3664
0.754757,4032
0.755758,2592
0.756757,3024
0.757756,4097
0.758756,3632
0.759756,3536
0.760757,2832
0.761757,3008
0.762756,3232
0.763755,2976
0.764758,3728
0.765758,3680
0.766756,2640
0.767757,2672
0.768755,3376
0.769757,3168
0.770756,3168
0.771757,3168
0.772756,2640
0.773755,3376
0.774756,3088
0.775756,3328
0.776756,2992
0.777756,2896
0.778756,2880
0.779756,3424
0.780757,3104
0.781756,4833
0.782755,3840
0.783756,3840
0.784755,2768
0.785756,4705
0.786754,2944
0.787754,6113
0.788758,4545
0.789756,3232
0.790756,3264
0.791755,2608
0.792757,2864
0.793756,2960
0.794757,3104
0.795756,3552
0.796756,3520
0.797756,3104
0.798757,3104
0.799757,2960
0.800756,3584
0.801757,3600
0.802757,3584
0.803758,2720
0.804773,4705
0.805764,3552
0.806756,3248
0.807758,2960
0.808758,3008
0.809755,2752
0.810756,2784
0.811757,3712
0.812754,3600
0.813756,3184
0.814758,4193
0.815757,5969
0.816758,5473
0.817756,3376
0.818756,3024
0.819758,2688
0.820756,2960
0.821757,4513
0.822756,3920
0.823756,3152
0.824755,4048
0.825757,3296
0.826756,2656
0.827756,4433
0.828756,4161
0.829756,3264
0.830756,3008
0.831756,2624
0.832754,3088
0.833758,3408
0.834755,2784
0.835756,3184
0.836755,2560
0.837755,2752
0.838757,2560
0.839756,2640
0.840757,3680
0.841755,3088
0.842756,3328
0.843754,2704
0.844756,2736
0.845756,4497
0.846757,5377
0.847755,2640
0.848758,4465
0.849756,3840
0.850756,3152
0.851755,2784
0.852758,4097
0.853757,3616
0.854756,2832
0.855757,2752
0.856754,3360
0.857755,2640
0.858756,3856
0.859756,2992
0.860755,3376
0.861756,3088
0.862756,4945
0.863756,3360
0.864757,3232
0.865757,2896
0.866753,3136
0.867758,3744
1.016353,3456
1.017299,3504
1.018009,3792
1.018691,4369
1.019373,2592
1.020127,2944
1.020806,3504
1.021490,3344
1.022172,4449
1.022876,4129
1.023555,2896
1.024239,3392
1.024926,2960
1.025608,3296
1.026291,4129
1.026983,3424
1.027661,2864
1.028372,2752
1.029060,4817
1.029747,2960
1.030433,6145
1.031123,5537
1.031812,4273
1.032497,3936
1.033187,3040
1.033878,3280
1.034756,3648
1.035756,3344
1.036756,4561
1.037756,3088
1.038756,2624
1.039756,2688
1.040754,2416
1.041758,5313
1.042756,3280
1.043754,3504
1.044755,4369
1.045758,3200
1.046756,4145
1.047757,3200
1.048756,3616
1.049756,3168
1.050756,2864
1.051756,2560
1.052755,2688
1.053756,3264
1.054754,4337
1.055756,2896
1.056756,2720
1.057754,3008
1.058756,2720
1.059758,2624
1.060777,2976
1.061757,4545
1.062755,2896
1.063756,3520
1.064756,4289
1.065756,3600
1.066756,3792
1.067758,3136
1.068755,2768
1.069757,3024
1.070755,2848
1.071756,3344
1.072756,2960
1.073756,2848
1.074758,3392
1.075756,3872
1.076757,3488
1.077756,3632
1.078757,3584
1.079756,2960
1.080758,2624
1.081758,3312
1.082756,3632
1.083756,4145
1.084756,2464
1.085758,3792
1.086758,2992
1.087756,2752
1.088756,3008
1.089754,4032
1.090757,3632
1.091755,3008
1.092756,2816
1.093757,3200
1.094755,3104
1.095756,3152
1.096756,2720
1.097756,3744
1.098757,5473
1.099756,2848
1.100756,2528
1.101756,3744
1.102757,2944
1.103756,2960
1.104758,3360
1.105756,3392
1.106756,2752
1.107757,2800
1.108756,2560
1.109754,3456
1.110758,4048
1.111756,3216
1.112758,3376
1.113757,2576
1.114755,3152
1.115756,3296
1.116756,2896
1.117757,3488
1.118756,2912
1.119756,2832
1.120756,3936
1.121755,3488
1.122756,2704
1.123754,3360
1.124772,4289
1.125760,2752
1.126756,3216
1.127756,3248
1.128756,4000
1.129756,3120
1.130755,2896
1.131758,5201
1.132756,3040
1.133755,3296
1.134756,2928
1.135757,3104
1.136758,2912
1.137755,4273
1.138758,3904
1.139757,3376
1.140757,2976
1.141754,3168
1.142758,2944
1.143755,3552
1.144757,3216
1.145755,3200
1.146756,3376
1.147756,2944
1.148756,2576
1.149756,3280
1.150755,3600
1.151756,3376
1.152756,2704
1.153756,2624
1.154756,2928
1.155758,4961
1.156753,4369
1.157756,3696
1.158756,2736
1.159757,3408
1.160756,3904
1.161758,4161
1.162756,2880
1.163754,3136
1.164755,2896
1.165759,3280
1.166756,4129
1.167755,2848
1.168757,2896
1.169757,3424
1.170756,3392
1.171755,3296
1.172756,4177
1.173757,3264
1.174756,2832
1.175758,2864
1.176755,2688
1.177755,4529
1.178758,3024
1.179758,3056
1.180756,3040
1.181756,3952
1.182756,4225
1.183756,2896
1.184755,2976
1.185757,3392
1.186756,2864
1.187757,2656
1.188771,3504
1.189762,2992
1.190756,3264
1.191756,2736
1.192758,2752
1.193757,2768
1.194756,4161
1.195756,3296
1.196757,3968
1.197754,3808
1.198758,2944
1.199756,2912
1.200754,2864
1.201756,3520
1.202756,3248
1.203756,3088
1.204756,2864
1.205756,2688
1.206756,3536
1.207755,2768
1.323962,3408
1.324463,3504
1.324752,3600
1.324999,3456
1.325235,3136
1.325490,3488
1.325731,3504
1.325971,3168
1.326212,3232
1.326467,3920
1.326756,3056
1.327755,2832
1.328757,3168
1.329755,3088
1.330755,3024
1.331758,3088
1.332758,2880
1.333757,4129
1.334755,3072
1.335757,3328
1.336755,3136
1.337754,3920
1.338755,3456
1.339757,2832
1.340756,2656
1.341756,4257
1.342754,3200
1.343756,3264
1.344757,2848
1.345756,2992
1.346757,3536
1.347756,2784
1.348756,2912
1.349757,3104
1.350756,2624
1.351757,2688
1.352756,2880
1.353756,3136
1.354757,3216
1.355755,4385
1.356756,2704
1.357756,3616
1.358754,3552
1.359756,3168
1.360756,3760
1.361757,3120
1.362757,3392
1.363756,3168
1.364757,2832
1.365756,2960
1.366756,3616
1.367758,3200
1.368756,3584
1.369756,3248
1.370756,3136
1.371757,3424
1.372756,3136
1.373756,3008
1.374756,2784
1.375759,3872
1.376756,3760
1.377756,3472
1.378757,2864
1.379773,3520
1.380763,2736
1.381759,3104
1.382755,4016
1.383756,3232
1.384758,2944
1.385755,3264
1.386755,3232
1.387756,2848
1.388758,2560
1.389755,3472
1.390755,3520
1.391757,3232
1.392757,2624
1.393753,3136
1.394756,3504
1.395756,3264
1.396758,3920
1.397755,3504
1.398757,2688
1.399757,3248
1.400757,3104
1.401758,2864
1.402757,3248
1.403754,3200
1.404756,3360
1.405756,3264
1.406755,4369
1.407757,4161
1.408757,3952
1.409756,3504
1.410756,2896
1.411756,4961
1.412756,3728
1.413758,3424
1.414755,3280
1.415757,2768
1.416756,3440
1.417758,3024
1.418754,3632
1.419755,2944
1.420758,4161
1.421756,3328
1.422756,3488
1.423757,2976
1.424757,3408
1.425754,2864
1.426759,3424
1.427756,3152
1.428757,3376
1.429756,3184
1.430758,3392
1.431757,3344
1.432757,2880
1.433758,3408
1.434754,3296
1.435758,2912
1.436756,3232
1.437755,3168
1.438757,2768
1.439754,3104
1.440758,3984
1.441756,3152
1.442758,3200
1.443775,4032
1.444764,3632
1.445756,3648
1.446756,2880
1.447756,3120
1.448755,3072
1.449758,2736
1.450756,2992
1.451756,3376
1.452754,3504
1.453757,3648
1.454758,2864
1.455757,2848
1.456757,2864
1.457757,3664
1.458758,3808
1.459756,3360
1.460754,2992
1.461756,3088
1.462756,3392
1.463756,3520
1.464755,3312
1.465755,4993
1.466757,3216
1.467757,3168
1.468757,3856
1.469756,3104
1.470756,2768
1.471756,2992
1.472754,3088
1.473755,2896
1.474757,3072
1.475756,3600
1.476755,2848
1.477755,3744
1.478756,2976
1.479755,3152
1.480758,2880
1.481756,3152
1.482756,3424
1.483755,3632
1.484754,2880
1.485757,3616
1.486755,4000
1.487755,2784
1.488757,2832
1.489756,3088
1.490756,2976
1.491756,4497
1.492756,3360
1.493756,3104
1.494757,2928
1.495756,3616
1.496756,3376
1.497757,3072
1.498756,2448
1.499757,2832
1.500756,3664
1.501754,2944
1.502756,4113
1.503756,4433
1.504756,3392
1.505756,3200
1.506758,3856
1.507773,3856
1.508760,3232
1.509757,3824
1.510756,3136
1.511756,3696
1.512756,3312
1.513758,3200
1.514758,4545
1.515758,3328
1.668574,3344
1.669234,3888
1.669651,4129
1.670063,3168
1.670455,4113
1.670915,4097
1.671307,3968
1.671697,4705
1.672093,4369
1.672502,4337
1.672896,3872
1.673288,2512
1.673681,3040
1.674079,2864
1.674756,3056
1.675756,3008
1.676756,3120
1.677754,3360
1.678755,4577
1.679753,3632
1.680758,4064
1.681757,3088
1.682756,3536
1.683756,3040
1.684757,3264
1.685758,2752
1.686757,3456
1.687756,3744
1.688758,3440
1.689757,3344
1.690758,2864
1.691757,3120
1.692757,3280
1.693756,3888
1.694755,3216
1.695759,3072
1.696754,3136
1.697757,3248
1.698756,2944
1.699758,4048
1.700784,3472
1.701760,2928
1.702756,3248
1.703756,2688
1.704757,3136
1.705757,3712
1.706756,2976
1.707756,3088
1.708755,3216
1.709755,4513
1.710755,3408
1.711754,4145
1.712756,3248
1.713756,3088
1.714757,3808
1.715755,3584
1.716756,3088
1.717755,3680
1.718756,3072
1.719756,4705
1.720759,3104
1.721755,3920
1.722755,2992
1.723757,3504
1.724756,3024
1.725757,3552
1.726757,3840
1.727756,2976
1.728756,2976
1.729757,2976
1.730755,3232
1.731756,3376
1.732754,3488
1.733757,3168
1.734758,3392
1.735753,3216
1.736757,2880
1.737757,3440
1.738753,3088
1.739753,3792
1.740757,3296
1.741757,3376
1.742754,2832
1.743758,2768
1.744756,3584
1.745756,3360
1.746758,3136
1.747757,3280
1.748753,3664
1.749755,3360
1.750756,3120
1.751757,3472
1.752757,3680
1.753756,3360
1.754757,2976
1.755756,2816
1.756757,3120
1.757755,4016
1.758756,3360
1.759755,3024
1.760756,3072
1.761758,3200
1.762758,2944
1.763756,3232
1.764769,2512
1.765758,3520
1.766757,3248
1.767756,3200
1.768756,3488
1.769758,3840
1.770757,3376
1.771758,3488
1.772757,3232
1.773756,4433
1.774755,3552
1.775755,3184
1.776757,3600
1.777755,3168
1.778757,2816
1.779755,3360
1.780754,3072
1.781756,2992
1.782756,3488
1.783758,4257
1.784758,3248
1.785754,3360
1.786756,5041
1.787758,3344
1.788757,3776
1.789757,3664
1.790756,3344
1.791756,3520
1.792758,2848
1.793757,2912
1.794755,3072
1.795754,3184
1.796757,4705
1.797756,3376
1.798755,4401
1.799756,3840
1.800757,3008
1.801756,3120
1.802756,3120
1.803757,3088
1.804756,4577
1.805756,3616
1.806754,3488
1.807756,3392
1.808756,3472
1.809758,3264
1.810754,3280
1.811755,3488
1.812757,3248
1.813756,3024
1.814756,3856
1.815756,3200
1.816757,3984
1.817757,3376
1.818755,3920
1.819754,3552
1.820755,4080
1.821755,4305
1.822756,3824
1.823758,3296
1.824757,3024
1.825756,3200
1.826755,3040
1.827756,3008
1.828771,2960
1.829761,3024
1.830756,3456
1.831757,3360
1.832757,2976
1.833756,3328
1.834755,3104
1.835757,3104
1.836758,3456
1.837756,3984
1.838756,3040
1.839758,3520
1.840756,3280
1.841757,3680
1.842758,2944
1.843758,3232
1.844755,3680
1.845756,3680
1.846757,3632
1.847756,3136
1.848756,3536
1.849755,3120
1.850758,3344
1.851756,3904
1.852755,3360
1.853757,3504
1.854756,3808
1.855758,4321
1.856756,3664
1.857756,6673
1.858756,3344
1.859755,3792
2.058130,3280
2.058933,3488
2.059504,3616
2.060058,2960
2.060602,3536
2.061216,3872
2.061762,3616
2.062305,3552
2.062859,3216
2.063424,4177
2.063971,2448
2.064518,2464
2.065069,2816
2.065620,3168
2.066171,3456
2.066725,3472
2.067275,4032
2.067850,3920
2.068756,3472
2.069757,3536
2.070755,3616
2.071755,3520
2.072757,3552
2.073756,3360
2.074756,3472
2.075754,3424
2.076756,3520
2.077755,5649
2.078756,3632
2.079757,3584
2.080757,3248
2.081756,3280
2.082756,3680
2.083758,3216
2.084778,3888
2.085758,3776
2.086756,3808
2.087758,3408
2.088757,4881
2.089758,3920
2.090754,3728
2.091756,3888
2.092754,3840
2.093754,3616
2.094756,3488
2.095756,3216
2.096756,3232
2.097756,3808
2.098756,4145
2.099758,3872
2.100756,3536
2.101757,3680
2.102756,3536
2.103757,3232
2.104755,3728
2.105756,3456
2.106756,3840
2.107757,3248
2.108758,3472
2.109758,3536
2.110756,3632
2.111757,5201
2.112757,4080
2.113757,4064
2.114757,4048
2.115754,3360
2.116756,3376
2.117756,3488
2.118756,4497
2.119755,3632
2.120757,3296
2.121756,3552
2.122756,4177
2.123754,3744
2.124756,3392
2.125757,3408
2.126757,4337
2.127756,3472
2.128756,3712
2.129756,3392
2.130756,3248
2.131756,3616
2.132756,4673
2.133758,4225
2.134755,3584
2.135757,3312
2.136757,3456
2.137755,3504
2.138756,3520
2.139756,3216
2.140756,4225
2.141757,3936
2.142756,3488
2.143757,3728
2.144757,3808
2.145755,3664
2.146756,3808
2.147756,3280
2.148777,3344
2.149756,4113
2.150757,3792
2.151758,3472
2.152758,3504
2.153757,3728
2.154757,3152
2.155756,3904
2.156757,3936
2.157756,3760
2.158758,3488
2.159757,3904
2.160757,4417
2.161756,3552
2.162753,3584
2.163758,3680
2.164756,3792
2.165755,4881
2.166756,3888
2.167755,3264
2.168757,3648
2.169756,3424
2.170758,3520
2.171757,3152
2.172756,3376
2.173759,4737
2.174757,3488
2.175757,3664
2.176754,4625
2.177757,4497
2.178758,3680
2.179754,4193
2.180757,3920
2.181755,3376
2.182755,4016
2.183758,3472
2.184757,3232
2.185755,3664
2.186756,3536
2.187755,3520
2.188758,4241
2.189756,3424
2.190757,4369
2.191756,3872
2.192758,3376
2.193756,4032
2.194756,3488
2.195755,3408
2.196757,3472
2.197758,5281
2.198757,4145
2.199757,3456
2.200756,3744
2.201756,4433
2.202754,3504
2.203756,3456
2.204758,4625
2.205756,3600
2.206756,3152
2.207758,3408
2.208754,3552
2.209756,3776
2.210757,3136
2.211756,3984
2.212773,3120
2.213763,3168
2.214758,3392
2.215757,3904
2.216756,3456
2.217758,3872
2.218757,4257
2.219756,4080
2.220756,3648
2.221757,3424
2.222758,3168
2.223757,3216
2.224756,4481
2.225757,3296
2.226754,4064
2.227755,3664
2.228757,4193
2.229757,3648
2.230755,3728
2.231755,3808
2.232758,3344
2.233754,3472
2.234754,3472
2.235756,3248
2.236755,3984
2.237757,3488
2.238756,3600
2.239757,3472
2.240756,4513
2.241756,4161
2.242756,3936
2.243756,3888
2.244756,3328
2.245756,3808
2.246756,5121
2.247756,4961
2.248756,3104
2.249756,4016
2.361478,5281
2.362443,2880
2.363184,3856
2.363898,3728
2.364599,3536
2.365374,4433
2.366076,3168
2.366785,3584
2.367486,4641
2.368207,5793
2.368916,4048
2.369623,2880
2.370336,3632
2.371049,3248
2.371756,4209
2.372465,3360
2.373178,3616
2.373918,3200
2.374630,3584
2.375346,2832
2.376064,3232
2.376776,3728
2.377493,2848
2.378208,3312
2.378928,3792
2.379645,4705
2.380366,5089
2.381083,4481
2.381807,3360
2.382756,3552
2.383756,3504
2.384758,5297
2.385757,4449
2.386756,5265
2.387756,3408
2.388758,3648
2.389758,4769
2.390758,3616
2.391756,4657
2.392758,3648
2.393756,3392
2.394756,5153
2.395757,4449
2.396755,4032
2.397756,4080
2.398757,3856
2.399755,3648
2.400756,3936
2.401755,3840
2.402756,4641
2.403755,3776
2.404777,2992
2.405760,3744
2.406754,3760
2.407757,3520
2.408755,3344
2.409755,3632
2.410757,3408
2.411756,3328
2.412756,4641
2.413757,4369
2.414757,3600
2.415753,3696
2.416756,3488
2.417757,3696
2.418756,3856
2.419756,4497
2.420758,3680
2.421758,3584
2.422757,4161
2.423755,4161
2.424756,3712
2.425756,4113
2.426757,4113
2.427755,4048
2.428756,3760
2.429758,3248
2.430755,4369
2.431756,3824
2.432756,3920
2.433755,4000
2.434758,3664
2.435756,3168
2.436757,3792
2.437755,3744
2.438755,3632
2.439757,3792
2.440756,3744
2.441756,3488
2.442756,4225
2.443757,3760
2.444757,3648
2.445757,3424
2.446755,4048
2.447756,3616
2.448755,3632
2.449758,4561
2.450754,3728
2.451757,3904
2.452755,5649
2.453756,3744
2.454757,3840
2.455757,3392
2.456757,3520
2.457757,4433
2.458757,4032
2.459756,3424
2.460753,3664
2.461756,2768
2.462756,5169
2.463755,4753
2.464757,4433
2.465757,3968
2.466756,3616
2.467755,3296
2.468772,3616
2.469763,3152
2.470757,3840
2.471755,3584
2.472758,3328
2.473756,3312
2.474758,3728
2.475756,5713
2.476756,3760
2.477755,3024
2.478758,4417
2.479757,3696
2.480756,4945
2.481756,3664
2.482756,5985
2.483756,4016
2.484757,3504
2.485758,3392
2.486756,5425
2.487756,3664
2.488755,3808
2.489755,3504
2.490756,4273
2.491757,3648
2.492754,3888
2.493755,2784
2.494756,3760
2.495754,3584
2.496756,4225
2.497752,4225
2.498757,4064
2.499757,3520
2.500756,4016
2.501756,4145
2.502756,3216
2.503756,3744
2.504755,3552
2.505756,5793
2.506758,4369
2.507756,3616
2.508756,3792
2.509758,3136
2.520326,3424
2.520557,4032
2.520762,3456
2.520966,3104
2.521175,2784
2.521382,3008
2.521588,3280
2.521803,3728
2.522012,3952
2.522223,4273
2.522755,4513
2.523757,4561
2.524757,4385
2.525757,3264
2.526756,3712
2.527755,4129
2.528756,3856
2.529757,3888
2.530756,3760
2.531758,3504
2.532771,2896
2.533758,3728
2.534760,3392
2.535755,3936
2.536758,3552
2.537758,3600
2.538756,3664
2.539755,3504
2.540756,3344
2.541754,4817
2.542759,4032
2.543758,4016
2.544756,3888
2.545757,4016
2.546755,4177
2.547756,3904
2.548756,3760
2.549756,4016
2.550756,4032
2.551756,3616
2.552756,3840
2.553757,3872
2.554758,3520
2.710124,3248
2.710656,2656
2.710998,3104
2.711298,2960
2.711581,3984
2.711934,4433
2.712214,5025
2.712497,6401
2.712785,5713
2.713091,4353
2.713378,3280
2.713756,3760
2.714756,4353
2.715754,3152
2.716758,3744
2.717756,3520
2.718757,4497
2.719756,3632
2.720756,4177
2.721758,3600
2.722756,3872
2.723757,3456
2.724785,4305
2.725766,5121
2.726758,3568
2.727758,3392
2.728753,5441
2.729756,4497
2.730757,4097
2.731755,4705
2.732755,3840
2.733756,3072
2.734757,3744
2.735758,4097
2.736756,4161
2.737756,3696
2.738755,3392
2.739754,3456
2.740756,3936
2.741754,4193
2.742757,4113
2.743757,3280
2.744756,3840
2.745756,3984
2.746758,4705
2.747756,4737
2.748755,3776
2.749756,3008
2.750757,3744
2.751755,3648
2.752756,4929
2.753756,3344
2.754758,4417
2.755754,2864
2.756757,4737
2.757755,3968
2.758756,4225
2.759754,3200
2.760756,3648
2.761755,3536
2.762756,3456
2.763756,4193
2.764756,4689
2.765756,4417
2.766754,3296
2.767757,3888
2.768754,3216
2.769755,3728
2.770756,4289
2.771756,4529
2.772756,3312
2.773757,4145
2.774756,3872
2.775754,4193
2.776757,3376
2.777755,3472
2.778758,5137
2.779758,4961
2.780756,4145
2.781756,2608
2.782758,3248
2.783755,4177
2.784757,4080
2.785757,3792
2.786756,3920
2.787753,2960
2.788770,3680
2.789760,3488
2.790757,4113
2.791756,4193
2.792756,3904
2.793757,3504
2.794757,4129
2.795756,3536
2.796756,4145
2.797755,3712
2.798758,4000
2.799756,3888
2.800757,3520
2.801756,3520
2.802756,4369
2.803754,4241
2.804754,2624
2.805758,3392
2.806757,3632
2.807757,4321
2.808754,3392
2.809755,4305
2.810754,2880
2.811758,4064
2.812754,3520
2.813757,2896
2.814756,3328
2.815758,5345
2.816757,4353
2.817754,3472
2.818755,3376
2.819757,4016
2.820757,3744
2.821758,4193
2.822757,3792
2.823756,3584
2.824755,2656
2.825757,3312
2.826756,3792
2.827757,4048
2.828756,3504
2.829754,2944
2.830756,3472
2.831756,5473
2.832758,3664
2.833756,4977
2.834754,4737
2.835756,3280
2.836757,3584
2.837754,4385
2.838756,3520
2.839757,5137
2.840757,4032
2.841757,4080
2.842756,3856
2.843756,4097
2.844754,4241
2.845758,3456
2.846757,3984
2.847753,3024
2.848756,3456
2.849755,2656
2.850756,3520
2.851756,4064
2.852771,4545
2.853764,4113
2.854758,3680
2.855757,3392
2.856756,3632
2.857756,3328
2.858757,3712
2.859757,3760
2.860756,4177
2.861756,4161
2.862756,3616
2.863755,3168
2.864757,4609
2.865756,3856
2.866758,3712
2.867756,3760
2.868755,4048
2.869758,3808
2.870756,3360
2.871755,2928
2.872756,3136
2.873757,4417
2.874756,4545
2.875756,4000
2.876755,3776
2.877756,3600
2.878756,3440
2.879754,3024
2.880756,3744
2.881757,3520
2.882755,3392
2.883755,3376
2.884756,2976
2.885756,3136
2.886755,3792
2.887757,4657
2.888755,2896
2.889755,4353
2.890757,4129
2.891755,2944
2.892757,4032
2.893755,4817
2.894756,4193
2.895758,3792
2.896756,3408
2.897758,3840
2.898759,3808
2.899755,3408
2.900756,4929
2.901757,4817
3.060610,4032
3.061310,3120
3.061775,3024
3.062219,4016
3.062651,3888
3.063161,3408
3.063596,4000
3.064039,4945
3.064479,5505
3.064942,3648
3.065380,2416
3.065822,3936
3.066262,6305
3.066709,5217
3.067157,2784
3.067756,2560
3.068755,4113
3.069755,3024
3.070757,2832
3.071756,2896
3.072757,4257
3.073756,4401
3.074757,2880
3.075756,3664
3.076756,3072
3.077758,3520
3.078757,3392
3.079756,2816
3.080757,3232
3.081757,2880
3.082756,2640
3.083755,3488
3.084756,3376
3.085755,3120
3.086757,2592
3.087756,3840
3.088757,2896
3.089755,2992
3.090757,4385
3.091756,3408
3.092754,4561
3.093758,4305
3.094757,4048
3.095756,5089
3.096756,4145
3.097756,2960
3.098756,2656
3.099758,3120
3.100756,2480
3.101758,3584
3.102756,3872
3.103758,2848
3.104755,2784
3.105756,2640
3.106756,2864
3.107889,3600
3.108766,4689
3.109761,3856
3.110762,3600
3.111758,3600
3.112756,2816
3.113756,3680
3.114756,3632
3.115756,3504
3.116755,2880
3.117757,2832
3.118754,3296
3.119757,2992
3.120757,3024
3.121755,3456
3.122756,3168
3.123756,3872
3.124758,3248
3.125756,3552
3.126757,3280
3.127755,3104
3.128754,2896
3.129756,2656
3.130756,3632
3.131757,3840
3.132756,2576
3.133757,3232
3.134756,3264
3.135754,4129
3.136757,3360
3.137758,3120
3.138757,3712
3.139756,2816
3.140756,2672
3.141756,4209
3.142757,4321
3.143758,2992
3.144753,3152
3.145755,3088
3.146754,3392
3.147756,3584
3.148756,2752
3.149757,3344
3.150755,3248
3.151754,2512
3.152755,2464
3.153757,3536
3.154759,3616
3.155754,2928
3.156755,3616
3.157757,4401
3.158756,3376
3.159757,3008
3.160758,2976
3.161757,2976
3.162756,3328
3.163755,3728
3.164756,4481
3.165756,4689
3.166758,3248
3.167757,3872
3.168757,3328
3.169757,3104
3.170756,2656
3.171756,5569
3.172770,4481
3.173763,4097
3.174757,2752
3.175757,3968
3.176756,2896
3.177757,2720
3.178755,2880
3.179756,3904
3.180758,3040
3.181756,2832
3.182757,3664
3.183756,3280
3.184757,3520
3.185756,2816
3.186756,2640
3.187757,4257
3.188756,4016
3.189756,3456
3.190758,2720
3.191755,3536
3.192756,2912
3.193755,3936
3.194756,4016
3.195756,3456
3.196756,3664
3.197757,2864
3.198754,2768
3.199757,3168
3.200755,2864
3.201756,2944
3.202758,2768
3.203756,3840
3.204757,3024
3.205757,3776
3.206756,2848
3.207755,2864
3.208756,2848
3.209754,3168
3.210755,3456
3.211758,3120
3.212756,3936
3.213756,4433
3.214757,3248
3.215756,2976
3.216756,2400
3.217755,2672
3.218755,3280
3.219758,3808
3.220755,4016
3.221758,2976
3.222754,4241
3.223757,3296
3.224756,3024
3.225754,3664
3.226756,3760
3.227758,3488
3.228756,3104
3.229758,2768
3.230756,2496
3.231757,2688
3.232756,3456
3.233758,4385
3.234756,2752
3.235755,3072
3.236774,3088
3.237761,3520
3.238756,4080
3.239754,3296
3.240757,3024
3.241755,3360
3.242755,3472
3.243756,3744
3.244757,3232
3.245757,3744
3.246758,2944
3.247756,3328
3.248754,3008
3.249756,4129
3.250758,3056
3.251757,2432
3.360414,5409
3.361288,4401
3.361929,3776
3.362529,4032
3.363126,3872
3.363794,3536
3.364513,3472
3.365123,2976
3.365721,4048
3.366332,5425
3.366927,4529
3.367520,3536
3.368111,2992
3.368708,4048
3.369314,4193
3.369912,4064
3.370508,3376
3.371131,2656
3.371725,3216
3.372324,2896
3.372932,3072
3.373757,3664
3.374756,3328
3.375755,3200
3.376756,2896
3.377758,2896
3.378757,2960
3.379756,4561
3.380758,3216
3.381756,3392
3.382757,4353
3.383759,3072
3.384757,2640
3.385756,2640
3.386756,3232
3.387757,2944
3.388756,3200
3.389756,3632
3.390758,2912
3.391758,2736
3.392756,2800
3.393757,3072
3.394755,2512
3.395756,3680
3.396757,3808
3.397756,2624
3.398756,2768
3.399757,4897
3.400756,3552
3.401757,4113
3.402756,3568
3.403754,3728
3.404757,3376
3.405753,3392
3.406756,2864
3.407758,2496
3.408756,2736
3.409755,4481
3.410757,3888
3.411756,3328
3.412757,2384
3.413756,3600
3.414756,2720
3.415755,4225
3.416756,3504
3.417757,3296
3.418756,2704
3.419757,2976
3.420756,3440
3.421755,3360
3.422756,2624
3.423756,3856
3.424757,3600
3.425757,3088
3.426759,3232
3.427755,3696
3.428773,3520
3.429760,2688
3.430756,3344
3.431757,3264
3.432756,3616
3.433756,4016
3.434758,3760
3.435757,3504
3.436756,4785
3.437758,3536
3.438758,2880
3.439756,2928
3.440755,5265
3.441756,3168
3.442756,2976
3.443754,2992
3.444754,3216
3.445757,2576
3.446756,2880
3.447758,3216
3.448756,3824
3.449755,4064
3.450755,4129
3.451756,3328
3.452758,3616
3.453757,4016
3.454757,3936
3.455755,2848
3.456755,2720
3.457756,2848
3.458754,2560
3.459754,3472
3.460755,2688
3.461756,2992
3.462755,2880
3.463756,4321
3.464756,4897
3.465756,2960
3.466755,2816
3.467756,3504
3.468755,3232
3.469757,3328
3.470758,3200
3.471756,2992
3.472756,2912
3.473758,3088
3.474756,2784
3.475754,3856
3.476756,3424
3.477755,3424
3.478756,3584
3.479757,3280
3.480755,3264
3.481755,3168
3.482756,3584
3.483757,2832
3.484756,2816
3.485757,3136
3.486756,4385
3.487756,3088
3.488757,3024
3.489756,3856
3.490757,4401
3.491756,3344
3.492773,3280
3.493758,2464
3.494754,2752
3.495757,3152
3.496754,2992
3.497755,6161
3.498756,4705
3.499758,3520
3.500756,3360
3.501756,3024
3.502755,3392
3.503756,3008
3.504758,2704
3.505754,3168
3.506756,4209
3.507759,2976
3.508757,3072
3.509758,3840
3.510756,2896
3.511758,4145
3.512756,3840
3.513756,3520
3.514756,2832
3.515759,3168
3.516757,3216
3.517757,3120
3.518756,3168
3.519757,4481
3.520755,2848
3.521759,2416
3.522757,3856
3.523758,6577
3.524758,3360
3.525755,2704
3.526756,2608
3.527758,6145
3.528756,3984
3.529755,3248
3.530756,3760
3.531754,3104
3.532755,2912
3.533756,3616
3.534756,3392
3.535758,3824
3.536758,3808
3.537756,2976
3.538757,2992
3.539757,2720
3.540758,2688
3.541756,2848
3.542759,4257
3.543755,4289
3.544756,3168
3.545757,2784
3.546756,2768
3.547756,3056
3.548758,3680
3.549758,4064
3.550756,2784
3.551756,2656
3.714862,3392
3.715861,3408
3.716641,4257
3.717402,3024
3.718157,2784
3.718986,2752
3.719743,3616
3.720495,3584
3.721249,4689
3.722023,4801
3.722778,3536
3.723534,2896
3.724294,3728
3.725052,3488
3.725811,3424
3.726569,3616
3.727330,3632
3.728118,3904
3.728878,2976
3.729641,3360
3.730410,2912
3.731173,3456
3.731939,3200
3.732701,3232
3.733462,4273
3.734228,3120
3.734995,4273
3.735763,3520
3.736528,3568
3.737301,3840
3.738073,3424
3.738845,3632
3.739756,3232
3.740756,3136
3.741756,3120
3.742756,3088
3.743754,3008
3.744757,3104
3.745754,2672
3.746757,4673
3.747756,3856
3.748778,3664
3.749759,3216
3.750757,2736
3.751755,3776
3.752756,2896
3.753756,2816
3.754754,3856
3.755756,3024
3.756755,3120
3.757756,3200
3.758757,4449
3.759757,2944
3.760756,3328
3.761757,3968
3.762758,3152
3.763756,3264
3.764754,3280
3.765757,3120
3.766757,4193
3.767756,3760
3.768755,3168
3.769756,3008
3.770755,4289
3.771756,3680
3.782033,2944
3.782255,3216
3.782462,4177
3.782665,3856
3.782876,3632
3.783082,3264
3.783298,3664
3.783512,2848
3.783728,3552
3.783943,3600
3.784756,2528
3.785755,4529
3.786758,3552
3.787758,2560
3.788757,2720
3.789755,3152
3.790756,4145
3.791758,3664
3.792756,3392
3.793756,3072
3.794757,2848
3.795755,2736
3.796758,2816
3.797757,4048
3.798757,3744
3.799755,3424
3.800753,3632
3.801755,3008
3.802756,3760
3.803757,3536
3.804754,2720
3.805756,3152
3.806755,2976
3.807754,3632
3.808756,4545
3.809756,2816
3.810758,2512
3.811776,3984
3.812765,3424
3.813756,2960
3.814760,2896
3.815756,3616
3.816755,3776
3.817756,2864
3.818758,2624
3.819757,4769
3.820758,3840
3.821759,3616
3.822755,3408
3.823758,2752
3.824755,3152
3.825758,4609
3.826758,3104
3.827757,2976
3.828756,3936
3.829756,3728
3.830758,2592
3.831756,2896
3.832757,4000
3.833757,2832
3.834756,2800
3.835756,2688
3.836758,3552
3.837757,4032
3.838756,3664
3.839758,2960
3.840754,2832
3.841757,3552
3.842756,3888
3.843756,3392
3.844754,3728
3.845757,3632
3.846753,3168
3.847757,3904
3.848755,3984
3.849757,3488
3.850756,2992
3.851757,3232
3.852756,3200
3.853757,3152
3.854758,2688
3.855758,2752
3.856756,3840
3.857756,4353
3.858755,3856
3.859754,3040
3.860758,2960
3.861755,3136
3.862756,2960
3.863756,3552
3.864758,3280
3.865756,2656
3.866755,3200
3.867758,2832
3.868756,3376
3.869758,3648
3.870756,3584
3.871757,2960
3.872757,2656
3.873757,3552
3.874757,4048
3.875773,3248
3.876762,2560
3.877757,5457
3.878757,3040
3.879756,2736
3.880758,3296
3.881757,3888
3.882756,3040
3.883757,2848
3.884756,3632
3.885754,4241
3.886756,3216
3.887757,2848
3.888758,2688
3.889755,3200
3.890757,3488
3.891756,3104
3.892756,3296
3.893755,4545
3.894756,3584
3.895756,3728
3.896757,3216
3.897758,3312
3.898756,3040
3.899755,3104
3.900759,3936
3.901757,3776
3.902755,3360
3.903756,3008
3.904756,3216
3.905756,3216
3.906755,2880
3.907756,4257
3.908755,3424
4.065689,4801
4.066284,3632
4.066655,3552
4.067009,2976
4.067343,3104
4.067749,3632
4.068207,3312
4.068549,3680
4.068894,3552
4.069248,3616
4.069584,2976
4.069930,3552
4.070265,2704
4.070757,3040
4.071757,4305
4.072756,2944
4.073756,2976
4.074756,3136
4.075755,3136
4.076757,5265
4.077757,5553
4.078758,4032
4.079758,2720
4.080755,3456
4.081756,3936
4.082756,3456
4.083758,3344
4.084756,3392
4.085756,3424
4.086757,3232
4.087755,4545
4.088759,3472
4.089755,3472
4.090757,2768
4.091757,4177
4.092755,3360
4.093755,3312
4.094756,2784
4.095758,3168
4.096757,3808
4.097757,2976
4.098754,3248
4.099756,3520
4.100754,2944
4.101756,3040
4.102756,3296
4.103757,3040
4.104757,3024
4.105758,3168
4.106756,2880
4.107757,3136
4.108757,3488
4.109756,3744
4.110756,4016
4.111758,4000
4.112756,3040
4.113755,4929
4.114757,4625
4.115755,3776
4.116757,3040
4.117757,3536
4.118757,4225
4.119756,3616
4.120755,2992
4.121756,3520
4.122756,3040
4.123756,2816
4.124757,3120
4.125757,3920
4.126756,3056
4.127756,3664
4.128757,3280
4.129756,3104
4.130757,2992
4.131757,3792
4.132771,4225
4.133760,3664
4.134759,2832
4.135757,3200
4.136756,3152
4.137755,3888
4.138756,3376
4.139756,3200
4.140756,3152
4.141756,4064
4.142757,2816
4.143755,3776
4.144755,4273
4.145757,3424
4.146756,3200
4.147756,3392
4.148756,3744
4.149756,3040
4.150757,3008
4.151756,2960
4.152758,3072
4.153754,3168
4.154757,3152
4.155755,3712
4.156757,3920
4.157756,3408
4.158757,3072
4.159756,4161
4.160755,4016
4.161757,3456
4.162757,3200
4.163756,3216
4.164757,3680
4.165757,3200
4.166757,3456
4.167758,3248
4.168755,3024
4.169755,3008
4.170756,3616
4.171756,3344
4.172754,3312
4.173756,3248
4.174758,2864
4.175756,3760
4.176756,4113
4.177759,3248
4.178755,3712
4.179758,3408
4.180756,3376
4.181757,4817
4.182756,3728
4.183756,3232
4.184756,3648
4.185758,3232
4.186756,4385
4.187754,3280
4.188757,3296
4.189756,3408
4.190757,4016
4.191755,3600
4.192755,3408
4.193758,3216
4.194754,3232
4.195756,4657
4.196767,3536
4.197763,3104
4.198757,3216
4.199756,3264
4.200756,3232
4.201757,3360
4.202757,3600
4.203757,3280
4.204756,4161
4.205756,3968
4.206758,3088
4.207756,3120
4.208756,3200
4.209755,2976
4.210758,4257
4.211757,3472
4.212758,3360
4.213756,2912
4.214756,3248
4.215756,3712
4.216755,3920
4.217757,3632
4.218755,3232
4.219756,2976
4.220754,2896
4.221754,4225
4.222758,3088
4.223756,3248
4.224755,3264
4.225757,3024
4.226756,2736
4.227756,3984
4.228756,3344
4.229754,3184
4.230756,3104
4.231757,2992
4.232758,3152
4.233756,3120
4.234756,3552
4.235756,4369
4.236756,2960
4.237757,3680
4.238756,3248
4.239756,4032
4.240754,3872
4.241757,4032
4.242754,4193
4.243756,3056
4.244757,3392
4.245754,3520
4.246758,3360
4.247756,3056
4.248757,3104
4.249756,3184
4.250756,3648
4.251757,3120
4.252756,3424
4.253756,3296
4.254756,2912
4.255756,3344
4.256757,3456
4.369478,5505
4.370235,3520
4.370766,3232
4.371266,2880
4.371758,3040
4.372321,3232
4.372814,2896
4.373303,3584
4.373796,3440
4.374302,3424
4.374797,3904
4.375288,3344
4.375777,3424
4.376272,3712
4.376771,3472
4.377266,3248
4.377763,3200
4.378757,3472
4.379756,3152
4.380755,3600
4.381756,3248
4.382757,3120
4.383755,3104
4.384756,4609
4.385757,4481
4.386756,3168
4.387758,3968
4.388776,4625
4.389759,3520
4.390758,4097
4.391758,3376
4.392757,3216
4.393756,3328
4.394756,3280
4.395756,3536
4.396757,3248
4.397757,3552
4.398756,3280
4.399758,3488
4.400757,3856
4.401756,3280
4.402758,3280
4.403758,3920
4.404756,3168
4.405757,3328
4.406756,3504
4.407756,3584
4.408754,3472
4.409755,3328
4.410755,3680
4.411755,3776
4.412756,3664
4.413757,3616
4.414756,3392
4.415756,5825
4.416756,3200
4.417756,3504
4.418756,3600
4.419756,3296
4.420756,3008
4.421756,3136
4.422757,3680
4.423758,3728
4.424756,3888
4.425756,3360
4.426756,3168
4.427755,3936
4.428757,3872
4.429756,3504
4.430757,3296
4.431756,3424
4.432756,3680
4.433756,3744
4.434756,3488
4.435757,3376
4.436756,2912
4.437755,3408
4.438756,3424
4.439756,3536
4.440757,3536
4.441758,3392
4.442756,3504
4.443756,3520
4.444758,3280
4.445756,3888
4.446757,3872
4.447757,3536
4.448758,2864
4.449753,3408
4.450757,3184
4.451756,3504
4.452775,4337
4.453763,3856
4.454759,3040
4.455756,4145
4.456755,3424
4.457756,4465
4.458754,3216
4.459759,3296
4.460754,5201
4.461754,4193
4.462757,3504
4.463757,3344
4.464756,3808
4.465755,3872
4.466756,4273
4.467755,3136
4.468757,2960
4.469754,3840
4.470756,3856
4.471754,3728
4.472758,3504
4.473757,3328
4.474757,3872
4.475756,4801
4.476758,3408
4.477756,3664
4.478755,3920
4.479754,3456
4.480757,3168
4.481754,3344
4.482756,3360
4.483756,3360
4.484756,3536
4.485756,3456
4.486756,3408
4.487756,3200
4.488754,3728
4.489756,4529
4.490755,3680
4.491756,4689
4.492756,4385
4.493756,3984
4.494756,3808
4.495757,3648
4.496755,3344
4.497756,4785
4.498758,3296
4.499755,3296
4.500756,2880
4.501757,3264
4.502755,3600
4.503757,2976
4.504756,3664
4.505756,3728
4.506758,3264
4.507758,3120
4.508756,5905
4.509757,5729
4.510756,4225
4.511754,3920
4.512756,4032
4.513756,3472
4.514757,3504
4.515755,3280
4.516769,2944
4.517758,3392
4.518755,3568
4.519757,3520
4.520756,3040
4.521755,3456
4.522756,3840
4.523756,4000
4.524756,3984
4.525756,3728
4.526758,3264
4.527759,3072
4.528756,4048
4.529756,3920
4.530754,5089
4.531757,4032
4.532757,3248
4.533756,3280
4.534757,3808
4.535759,3632
4.536758,3328
4.537755,3392
4.538758,3312
4.539758,3008
4.540757,3792
4.541756,3856
4.542755,4000
4.543758,3632
4.544754,3456
4.545756,3216
4.546756,4321
4.547757,3856
4.548755,3488
4.549754,3712
4.550756,3488
4.551755,3744
4.552756,3280
4.553754,3616
4.554757,3616
4.555756,3712
4.556758,3680
4.557753,3344
4.558756,3728
4.559756,3552
4.560758,3424
4.722884,2976
4.723785,3584
4.724463,4913
4.725113,3824
4.725760,3488
4.726469,3664
4.727115,3280
4.727764,3072
4.728409,4097
4.729079,4369
4.729729,4145
4.730376,3856
4.731026,4000
4.731672,3088
4.732323,4353
4.732970,2992
4.733618,3728
4.734289,4257
4.734944,2992
4.735592,2992
4.736248,2736
4.736902,3760
4.737550,3456
4.738209,3168
4.738864,3264
4.739757,3552
4.740755,4064
4.741758,3808
4.742757,3632
4.743757,3552
4.744757,3344
4.745756,3408
4.746757,6113
4.747757,4577
4.748756,3728
4.749756,3488
4.750755,3600
4.751755,3376
4.752758,3248
4.753758,3424
4.754756,3360
4.755756,3776
4.756756,4161
4.757754,4225
4.758758,3728
4.759755,3456
4.760757,3488
4.761757,3616
4.762756,3456
4.763754,3280
4.764755,3408
4.765755,2640
4.766756,3856
4.767756,4048
4.768755,5761
4.769755,3728
4.770755,3936
4.771755,3568
4.772777,5153
4.773758,3280
4.774758,3552
4.775756,3376
4.776756,3360
4.777755,4449
4.778756,4257
4.779756,3744
4.780756,3488
4.781757,3872
4.782754,3664
4.783754,3456
4.784756,3600
4.785756,3520
4.786756,3504
4.787756,3392
4.788758,3792
4.789754,4737
4.790757,3360
4.791754,3472
4.792755,3584
4.793757,3248
4.794755,3072
4.795754,4497
4.796755,3360
4.797757,4865
4.798758,3920
4.799756,3712
4.800757,3360
4.801754,3664
4.802757,3376
4.803757,4753
4.804756,3360
4.805756,3504
4.806758,4016
4.807755,3776
4.808757,4000
4.809757,4513
4.810757,3568
4.811755,3936
4.812756,3600
4.813756,3600
4.814755,3248
4.815756,4016
4.816757,3680
4.817758,3312
4.818757,3072
4.819757,3664
4.820755,3344
4.821757,3120
4.822756,3248
4.823756,3136
4.824756,4833
4.825757,3744
4.826754,3504
4.827756,3680
4.828755,3984
4.829754,4048
4.830757,3936
4.831757,3952
4.832757,3456
4.833757,3648
4.834757,3840
4.835756,3872
4.836773,2384
4.837758,3728
4.838757,3680
4.839758,3120
4.840757,3536
4.841756,3536
4.842756,4193
4.843757,3568
4.844756,4529
4.845756,4097
4.846756,4369
4.847757,3760
4.848758,3920
4.849755,5473
4.850756,4609
4.851756,3984
4.852758,3680
4.853758,4000
4.854757,3472
4.855757,3536
4.856758,3552
4.857756,3520
4.858757,3600
4.859756,3328
4.860754,4369
4.861758,3648
4.862755,3360
4.863757,4881
4.864755,3776
4.865756,4016
4.866755,3888
4.867758,3072
4.868756,3936
4.869756,3920
4.870758,3264
4.871756,3616
4.872756,4497
4.873756,4048
4.874756,3968
4.875757,3776
4.876756,3600
4.877754,3760
4.878758,3648
4.879756,3344
4.880756,3648
4.881758,3488
4.882756,3392
4.883756,3456
4.884756,3552
4.885756,4080
4.886757,3616
4.887755,3632
4.888756,3360
4.889754,3424
4.890754,4113
4.891756,4048
4.892757,3136
4.893757,3920
4.894756,4064
4.895756,4064
4.896755,4097
4.897756,3424
4.898754,3712
4.899758,3616
4.900769,2528
4.901761,3328
4.902757,3472
4.903756,3040
4.904756,4273
4.905757,3536
4.906757,3856
4.907756,3776
4.908753,3408
4.909758,3968
4.910757,3872
4.911754,4801
4.912756,3520
4.913756,4353
5.075851,3520
5.077904,3888
5.078887,3344
5.079734,3536
5.080545,3616
5.081429,3376
5.082235,3744
5.083048,2848
5.083862,3152
5.084687,3520
5.085500,4785
5.086311,3888
5.087121,2960
5.087934,3584
5.088742,3296
5.089549,3424
5.097001,2816
5.097244,3024
5.097453,2976
5.097668,2768
5.097884,3344
5.098091,2944
5.098303,3552
5.098515,3104
5.098731,3104
5.098944,2992
5.099757,3760
5.100757,4193
5.101754,3712
5.102758,3904
5.103756,3552
5.104755,3664
5.105755,3616
5.106758,4209
5.107756,5377
5.108756,3760
5.109756,3792
5.110756,3888
5.111757,3728
5.112757,3760
5.113756,4000
5.114756,4321
5.115758,3360
5.116756,4689
5.117756,2992
5.118755,5649
5.119757,4129
5.120755,3712
5.121757,4353
5.122756,3248
5.123758,3600
5.124756,3728
5.125757,4257
5.126757,3488
5.127756,3472
5.128758,4273
5.129757,4321
5.130756,3728
5.131756,3696
5.132754,3664
5.133757,3136
5.134757,3904
5.135758,3616
5.136756,3456
5.137757,3856
5.138757,3664
5.139756,3856
5.140756,4097
5.141756,3760
5.142758,3536
5.143756,3904
5.144756,3552
5.145756,3616
5.146756,3744
5.147756,3792
5.148757,3344
5.149756,4000
5.150756,5969
5.151758,4353
5.152757,3648
5.153754,3984
5.154756,3632
5.155770,3136
5.156763,3408
5.157759,4129
5.158757,4881
5.159756,3792
5.160755,3648
5.161756,3616
5.162755,3792
5.163755,4369
5.164756,4577
5.165756,2944
5.166756,3584
5.167756,3744
5.168756,3520
5.169757,4625
5.170757,4497
5.171756,5201
5.172754,4064
5.173756,4097
5.174755,5265
5.175756,4769
5.176758,3920
5.177757,3600
5.178756,3616
5.179755,3536
5.180754,3856
5.181757,2816
5.182758,4225
5.183756,3632
5.184757,4801
5.185757,4769
5.186757,4497
5.187757,4225
5.188754,3616
5.189758,3440
5.190756,4577
5.191756,4161
5.192757,4080
5.193758,3760
5.194757,3536
5.195755,3552
5.196755,4097
5.197757,3504
5.198756,3472
5.199756,3456
5.200756,3984
5.201758,3584
5.202757,4000
5.203755,3504
5.204756,3744
5.205756,3808
5.206758,3664
5.207756,3712
5.208756,3392
5.209756,3328
5.210756,4993
5.211755,3504
5.212755,4129
5.213757,4561
5.214756,4048
5.215756,3280
5.216756,3552
5.217758,4273
5.218756,3968
5.219771,3888
5.220762,3216
5.221760,3392
5.222758,3888
5.223755,3552
5.224757,3264
5.225756,3616
5.226756,5281
5.227756,4305
5.228754,3712
5.229758,2896
5.230756,4129
5.231754,3744
5.232756,3760
5.233756,4273
5.234756,3888
5.235756,4561
5.236756,3504
5.237755,3280
5.238755,3248
5.239758,3856
5.240758,4289
5.241756,3856
5.242754,3344
5.243757,4465
5.244756,3616
5.245757,2880
5.246757,3760
5.247757,5201
5.248757,5025
5.249756,4241
5.250756,3488
5.251755,3536
5.252758,3616
5.253755,3504
5.254756,3744
5.255758,3760
5.256756,4305
5.257757,3792
5.258756,4433
5.259758,4048
5.260755,3456
5.261755,2864
5.262757,3552
5.263756,4705
5.264757,4929
5.265756,4385
5.266756,3888
5.267756,3616
5.268755,3808
5.269756,3600
5.270757,3920
5.271757,5793
5.272756,5409
5.388148,4161
5.388787,3648
5.389188,3424
5.389561,3600
5.389933,2768
5.390363,3616
5.390734,3776
5.391101,3488
5.391468,4289
5.391856,3632
5.392224,3056
5.392591,3392
5.392968,3168
5.393757,3936
5.394756,4016
5.395756,3856
5.396756,3328
5.397757,4529
5.398754,2960
5.399756,3376
5.400756,3376
5.401757,3376
5.402756,3264
5.403755,3248
5.404756,3264
5.405756,3056
5.406755,3216
5.407757,5313
5.408755,3584
5.409756,3904
5.410757,4305
5.411753,3216
5.412781,3408
5.413759,3536
5.414758,3968
5.415757,3808
5.416756,3808
5.417756,3536
5.418757,3680
5.419756,4513
5.420758,5041
5.421756,3088
5.422757,4129
5.423756,3968
5.424757,4897
5.425758,3856
5.426757,3360
5.427757,4113
5.428756,3680
5.429757,3728
5.430754,3888
5.431757,4048
5.432756,3840
5.433756,3200
5.434758,3264
5.435756,3344
5.436756,3520
5.437757,3872
5.438756,4257
5.439758,3776
5.440757,3776
5.441757,3824
5.442758,3984
5.443755,3888
5.444757,3984
5.445756,3088
5.446756,3680
5.447755,3600
5.448757,3488
5.449756,3504
5.450756,3504
5.451759,3424
5.452756,3200
5.453755,2528
5.454754,2816
5.455758,3488
5.456757,4369
5.457755,4032
5.458756,3904
5.459758,3472
5.460754,4016
5.461757,3328
5.462756,3264
5.463756,3856
5.464755,5601
5.465756,3984
5.466756,4529
5.467758,4305
5.468757,4257
5.469756,4080
5.470759,3792
5.471755,2848
5.472755,3264
5.473757,3424
5.474756,3072
5.475756,3280
5.476770,2464
5.477759,3488
5.478757,4145
5.479754,4497
5.480757,3360
5.481755,2832
5.482756,4048
5.483755,3984
5.484758,3392
5.485756,3072
5.486756,3104
5.487757,3296
5.488756,3456
5.489756,4913
5.490756,5265
5.491756,3792
5.492756,3584
5.493756,2832
5.494756,3088
5.495757,3584
5.496756,3072
5.497754,2976
5.498757,3760
5.499756,4401
5.500756,3584
5.501756,2896
5.502755,2784
5.503755,2912
5.504756,3104
5.505756,3088
5.506755,3968
5.507754,3712
5.508755,3520
5.509756,3216
5.510757,3600
5.511755,2992
5.512756,3088
5.513757,3968
5.514757,4145
5.515758,4129
5.516756,2992
5.517756,3808
5.518756,3600
5.519757,3632
5.520756,2624
5.521756,3072
5.522758,4064
5.523754,2736
5.524756,3296
5.525755,2880
5.526757,3904
5.527756,4048
5.528757,3008
5.529756,3376
5.530756,2672
5.531758,3920
5.532755,3520
5.533757,3552
5.534757,3536
5.535757,3888
5.536756,3632
5.537757,3328
5.538758,3360
5.539756,2832
5.540773,4257
5.541757,3824
5.542759,3776
5.543756,4369
5.544756,3888
5.545756,4753
5.546756,2944
5.547755,3808
5.548758,3728
5.549756,3664
5.550758,4048
5.551758,4289
5.552756,6113
5.553756,4561
5.554755,3152
5.555756,3600
5.556756,3648
5.557757,2880
5.558755,2832
5.559756,2944
5.560757,3344
5.561755,2608
5.562755,3472
5.563756,3168
5.564756,3328
5.565758,4016
5.566756,2816
5.567756,2864
5.568757,3488
5.569756,3440
5.570757,2960
5.571757,3472
5.572757,4609
5.573756,4145
5.574757,3344
5.575756,3232
5.576755,2832
5.577756,3136
5.578755,3376
5.579756,3088
5.746062,3680
5.746837,3760
5.747387,3792
5.747919,3680
5.748439,4097
5.749026,3904
5.749542,4417
5.750064,3792
5.750580,3376
5.751122,3168
5.751640,3712
5.752164,3936
5.752686,3920
5.753212,3504
5.753735,4145
5.754256,4401
5.754779,3744
5.755755,2736
5.756755,3184
5.757757,3360
5.758757,4401
5.759755,3216
5.760755,3584
5.761756,3088
5.762756,2864
5.763757,2944
5.764758,2592
5.765758,2896
5.766757,4129
5.767758,2224
5.768758,2512
5.769758,2944
5.770756,3840
5.771755,4833
5.772756,2720
5.773757,2880
5.774757,2768
5.775759,3248
5.776757,5217
5.777755,4273
5.778756,3920
5.779758,3472
5.780755,3664
5.781756,2816
5.782756,2608
5.783754,3264
5.784756,3520
5.785756,2352
5.786756,2576
5.787756,2944
5.788756,4769
5.789757,4433
5.790757,2304
5.791754,3472
5.792755,3776
5.793756,4225
5.794757,3296
5.795758,2768
5.796778,3568
5.797761,3424
5.798757,2992
5.799755,2816
5.800755,2656
5.801757,2896
5.802756,3344
5.803754,2864
5.804755,3088
5.805756,2896
5.806756,2688
5.807756,2656
5.808756,2864
5.809758,3680
5.810755,3184
5.811755,3200
5.812756,2864
5.813755,4417
5.814756,3680
5.815756,3792
5.816758,2848
5.817758,3104
5.818755,3280
5.819756,2464
5.820758,2704
5.821756,3232
5.822756,4016
5.823756,2576
5.824758,2896
5.825756,3712
5.826757,4257
5.827756,3168
5.828755,3552
5.829754,2720
5.830756,2688
5.831755,2896
5.832758,3088
5.833757,4113
5.834756,3920
5.835756,3936
5.836757,3120
5.837758,3632
5.838758,3968
5.839755,3136
5.840756,4241
5.841757,3200
5.842758,3296
5.843757,3328
5.844757,2960
5.845756,2800
5.846756,4113
5.847757,3280
5.848755,3200
5.849756,2944
5.850756,2720
5.851756,3664
5.852755,4497
5.853756,3328
5.854757,2800
5.855756,2752
5.856755,2816
5.857756,4561
5.858755,2560
5.859758,2752
5.860772,3104
5.861759,3728
5.862757,3328
5.863756,4145
5.864756,3296
5.865755,2576
5.866757,2384
5.867755,2720
5.868756,2944
5.869757,3344
5.870756,3328
5.871757,2624
5.872757,2832
5.873755,3504
5.874758,3488
5.875755,3376
5.876756,4753
5.877757,3536
5.878754,2960
5.879756,2960
5.880754,3040
5.881755,2864
5.882758,3008
5.883756,4064
5.884757,3120
5.885755,3232
5.886758,3392
5.887756,2624
5.888756,2912
5.889756,2976
5.890756,4769
5.891756,2992
5.892756,2976
5.893756,3536
5.894755,3472
5.895757,3120
5.896758,4032
5.897756,3312
5.898755,3552
5.899755,3600
5.900756,3120
5.901757,3616
5.902757,4833
5.903757,3712
5.904757,4417
5.905756,2832
5.906756,3280
5.907757,4337
5.908756,6193
5.909756,3632
5.910755,3376
5.911758,2992
5.912753,2608
5.913758,3744
5.914755,3712
5.915757,3248
5.916757,3088
5.917757,2992
5.918755,2960
5.919756,2816
5.920756,3024
5.921757,4048
5.922756,3616
5.923756,3040
5.924777,3632
5.925764,4625
5.926758,2912
5.927756,3104
5.928756,2640
5.929756,2896
5.930757,3216
5.931758,2992
5.932756,2944
5.933756,3264
5.934757,2720
5.935756,3232
5.936757,2736
5.937758,3456
6.094047,4497
6.094979,4721
6.095679,10546
6.096362,11746
6.097040,9186
6.097780,3408
6.098450,4433
6.099126,3648
6.099803,3344
6.100495,4433
6.101174,3664
6.101849,3344
6.102526,4513
6.103203,3280
6.103884,3472
6.104556,5377
6.105236,3216
6.105941,3792
6.106615,4064
6.107296,3680
6.107977,3248
6.108655,6017
6.109343,6241
6.110028,3344
6.110758,3760
6.111758,2896
6.112756,2912
6.113756,6577
6.114758,4993
6.115757,2880
6.116777,4433
6.117763,3488
6.118759,3392
6.119756,4385
6.120756,3088
6.121756,4561
6.122756,6161
6.123757,3120
6.124757,5201
6.125757,3136
6.126757,5089
6.127757,3552
6.128758,8177
6.129755,8626
6.130755,3024
6.131756,5121
6.132758,2832
6.133756,2960
6.134756,2560
6.135755,3328
6.136757,3168
6.137758,3200
6.138755,4016
6.139756,3856
6.140757,7089
6.141755,3904
6.142757,5409
6.143756,6001
6.144756,3360
6.145756,3344
6.146756,4673
6.147755,3440
6.148756,3040
6.149757,2912
6.150756,2912
6.151756,2640
6.152756,5233
6.153756,3936
6.154757,2960
6.155753,3216
6.156756,4433
6.157757,2784
6.158757,3248
6.159757,8177
6.160757,4785
6.161754,3888
6.162757,2864
6.163755,5825
6.164756,3904
6.165758,2960
6.166756,4225
6.167756,4257
6.168755,7409
6.169757,5153
6.170756,4753
6.171754,3200
6.172755,4000
6.173757,3552
6.174757,3920
6.175757,5873
6.176755,6321
6.177756,3264
6.178755,6833
6.179756,4545
6.180774,5137
6.181758,4481
6.182756,5873
6.183755,2960
6.184755,3072
6.185755,4000
6.186756,5009
6.187757,6081
6.188755,3712
6.189756,4000
6.190757,2928
6.191755,3136
6.192755,3200
6.193758,4193
6.194756,2768
6.195757,3616
6.196757,3136
6.197756,3328
6.198756,2816
6.199754,3072
6.200757,4705
6.201756,3168
6.202758,2928
6.203754,3952
6.204757,6593
6.205756,3536
6.206756,5537
6.207756,3376
6.208758,5585
6.209757,4417
6.210757,5281
6.211758,7121
6.212756,5185
6.213759,7217
6.214758,10914
6.215756,8386
6.216755,3232
6.217753,3536
6.218756,6289
6.219757,5681
6.220756,5793
6.221754,4929
6.222757,5121
6.223757,3200
6.224754,4321
6.225755,3168
6.226757,3568
6.227753,3552
6.228756,5345
6.229756,5377
6.230757,3872
6.231756,4032
6.232758,3104
6.233754,3008
6.234756,3728
6.235757,3424
6.236757,5857
6.237754,4241
6.238756,6065
6.239757,5217
6.240755,2848
6.241756,4257
6.242757,3072
6.243758,2896
6.244773,4833
6.245758,5713
6.246759,2960
6.247758,2704
6.248757,2960
6.249756,5473
6.250756,6017
6.251758,2960
6.252758,5649
6.253756,3904
6.254756,9746
6.255757,4177
6.256756,5377
6.257757,11922
6.258755,8834
6.259757,3200
6.260755,3216
6.261757,3008
6.262756,6241
6.263756,8145
6.264756,7121
6.265757,2656
6.266755,6801
6.267755,17188
6.268755,8498
6.269754,3408
6.270758,4321
6.271757,4257
6.272755,3120
6.273755,5969
6.274756,5297
6.275756,3072
6.276756,4993
6.277756,3040
6.278756,7041
6.279758,3312
6.280757,7489
6.281757,5201
6.282754,6177
6.283757,5089
6.284756,5681
6.285758,4401
6.445420,14771
6.445917,15411
6.446172,11234
6.446406,5889
6.446635,4161
6.446902,3488
6.447134,5521
6.447365,6609
6.447599,5793
6.447857,4064
6.448089,4497
6.448757,3808
6.449755,3296
6.450756,9138
6.451756,9874
6.452758,6513
6.453756,9698
6.454756,3168
6.455757,3200
6.456756,3936
6.457757,5009
6.458754,6177
6.459754,7521
6.460755,3376
6.461758,4177
6.462756,10178
6.463756,4161
6.464758,3280
6.465755,9090
6.466756,13187
6.467756,3008
6.468755,3456
6.469757,6241
6.470757,3744
6.471756,5793
6.472758,6289
6.473757,4241
6.474756,8177
6.475754,14419
6.476754,3296
6.477756,3600
6.478755,8546
6.479757,3584
6.480756,5185
6.481757,3408
6.482755,16147
6.483758,8962
6.484756,11570
6.485757,7329
6.486756,6369
6.487755,6337
6.488755,8578
6.489757,3152
6.490755,3392
6.491756,7361
6.492756,6849
6.493757,12323
6.494756,4032
6.495756,4016
6.496755,5921
6.497755,6241
6.498753,4417
6.499756,3280
6.500781,7473
6.501761,13187
6.502757,4032
6.503756,5473
6.504756,4209
6.505756,9906
6.506756,13443
6.507754,11106
6.508757,3712
6.509755,10114
6.510758,21861
6.511757,5009
6.512756,3280
6.513755,3408
6.514757,7073
6.515755,15443
6.516756,3568
6.517755,6913
6.518756,5777
6.519758,6785
6.520757,3232
6.521755,4401
6.522756,5713
6.523757,3168
6.524759,5425
6.525757,6225
6.526757,3168
6.527757,6465
6.528756,6369
6.529756,5377
6.530756,10466
6.531756,8402
6.532758,3744
6.533757,6481
6.534757,15811
6.535756,6145
6.536757,8626
6.537756,3488
6.538757,3680
6.539754,14755
6.540758,3120
6.541757,22805
6.542756,5217
6.543754,4241
6.544757,23413
6.545757,19636
6.546756,6033
6.547758,4977
6.548755,5841
6.549756,12707
6.550756,12387
6.551755,3920
6.552758,3376
6.553756,7297
6.554755,26918
6.555758,11538
6.556756,12611
6.557756,15667
6.558755,7649
6.559757,24582
6.560756,15235
6.561758,19684
6.562755,10594
6.563758,3152
6.564779,3680
6.565765,4193
6.566757,3296
6.567758,6401
6.568758,6481
6.569756,11298
6.570758,3664
6.571756,14851
6.572756,38089
6.573756,18676
6.574756,5841
6.575757,18052
6.576755,3488
6.577758,5537
6.578756,12291
6.579756,7681
6.580756,3648
6.581757,3872
6.582756,4833
6.583757,8354
6.584758,7889
6.585755,8177
6.586756,8450
6.587755,16355
6.588756,22341
6.589756,6689
6.590756,3888
6.591758,3584
6.592755,4032
6.593756,3392
6.594756,10370
6.595755,3744
6.596755,5697
6.597757,5809
6.598756,3136
6.599757,13699
6.600756,9122
6.601757,14163
6.602756,3616
6.603756,11986
6.604757,20180
6.605756,5185
6.606755,4513
6.607756,3472
6.608757,6209
6.609755,13411
6.610757,5041
6.611756,4897
6.612756,10146
6.613758,14563
6.614758,23957
6.615756,4289
6.616756,10722
6.617756,6769
6.618756,3600
6.619756,4961
6.620757,8177
6.621756,6977
6.622756,7681
6.623757,24517
6.624757,25654
6.625756,11538
6.626757,6945
6.627758,6641
6.628774,6465
6.629762,7713
6.630760,6449
6.631754,5889
6.632756,14755
6.633757,6145
6.634758,5841
6.635756,8706
6.636755,4289
6.751691,8033
6.752340,15699
6.752768,30631
6.753162,48459
6.753545,42922
6.753999,22869
6.754381,6721
6.754770,9410
6.755157,19972
6.755798,10338
6.756212,7825
6.756608,21461
6.757002,19684
6.757388,17636
6.757780,19924
6.758756,4705
6.759756,24517
6.760754,4113
6.761758,4369
6.762757,16339
6.763756,3648
6.764756,4513
6.765757,8754
6.766756,3984
6.767756,43674
6.768755,20821
6.769759,5601
6.770756,10850
6.771758,11074
6.772756,15587
6.773756,4129
6.774756,3968
6.775758,11922
6.776757,15235
6.777758,24565
6.778756,7857
6.779756,17844
6.780756,5985
6.781757,9042
6.782755,13155
6.783755,27910
6.784755,26422
6.785756,7825
6.786757,6065
6.787757,4129
6.788757,18980
6.789757,11426
6.790755,6769
6.791758,5297
6.792756,17316
6.793756,10786
6.794756,4945
6.795754,16147
6.796757,4513
6.797756,10162
6.798757,10370
6.799756,6833
6.800755,13027
6.801754,10802
6.802755,15251
6.803755,63071
6.804757,51372
6.805754,32888
6.806755,42442
6.807757,5425
6.808758,3712
6.809756,14851
6.810756,14099
6.811754,12707
6.812756,8898
6.813756,13203
6.814755,12675
6.815756,5041
6.816756,6113
6.817754,22533
6.818755,21381
6.819777,21669
6.820761,6097
6.821760,9490
6.822757,16660
6.823755,19716
6.824755,5425
6.825757,22613
6.826757,25830
6.827757,4385
6.828757,4273
6.829757,17092
6.830757,12483
6.831756,22757
6.832758,18740
6.833757,18500
6.834756,10210
6.835755,20052
6.836757,4897
6.837756,5057
6.838758,9682
6.839758,14979
6.840756,4897
6.841758,9250
6.842756,7873
6.843756,22869
6.844756,26566
6.845756,48347
6.846757,38393
6.847755,11810
6.848757,13667
6.849758,11394
6.850756,45195
6.851756,21285
6.852755,56557
6.853756,25174
6.854756,5185
6.855755,28614
6.856756,22341
6.857755,10194
6.858756,10306
6.859756,5377
6.860757,5649
6.861757,7425
6.862754,5521
6.863757,3920
6.864756,3488
6.865757,3680
6.866754,13267
6.867757,9362
6.868757,16772
6.869755,4881
6.870758,8017
6.871756,4129
6.872754,22821
6.873755,6833
6.874755,8226
6.875755,15267
6.876755,6321
6.877757,5537
6.878758,3488
6.879756,23989
6.880756,25254
6.881756,5537
6.882755,4657
6.883770,7825
6.884759,14723
6.885759,17556
6.886755,5377
6.887758,18900
6.888757,38201
6.889756,30103
6.890754,4513
6.891758,5297
6.892756,4000
6.893756,4241
6.894754,12659
6.895755,8770
6.896757,3920
6.897756,6817
6.898755,4016
6.899756,3792
6.900756,4897
6.901756,7969
6.902756,7841
6.903755,17364
6.904756,13267
6.905757,8129
6.906756,4225
6.907756,26566
6.908756,45851
6.909756,11170
6.910758,41482
6.911758,4032
6.912758,11938
6.913756,17412
6.914755,30503
6.915756,32856
6.916757,11346
6.917757,20821
6.918754,33240
6.919758,47579
6.920757,23029
6.921756,16772
6.922757,8482
6.923756,5729
6.924756,13795
6.925755,15091
6.926756,25446
6.927754,5825
6.928756,6097
6.929755,6369
6.930757,22757
6.931755,3600
6.932757,4016
6.933757,6881
6.934756,17940
6.935755,6897
6.936755,17364
6.937756,8722
6.938755,7057
6.939755,14691
6.940758,18756
6.941756,4625
6.942754,6897
7.107179,28134
7.107981,8177
7.108546,3872
7.109100,7777
7.109639,8786
7.110250,5073
7.110788,4385
7.111329,4641
7.111870,5569
7.112427,6113
7.112970,18660
7.113509,28839
7.114053,36792
7.114597,11954
7.115146,4625
7.115693,15955
7.116240,21205
7.116813,6353
7.117755,11026
7.118755,39465
7.119758,9890
7.120756,5329
7.121757,30423
7.122757,11154
7.123755,27190
7.124755,6705
7.125758,10562
7.126754,4241
7.127756,18356
7.128756,9938
7.129755,15891
7.130756,24790
7.131758,10114
7.132756,6817
7.133756,3920
7.134756,26758
7.135756,20036
7.136758,7873
7.137757,10418
7.138759,15363
7.139797,7553
7.140765,32583
7.141759,12114
7.142759,20613
7.143757,6369
7.144755,9218
7.145756,64047
7.146756,54541
7.147757,9858
7.148756,4161
7.149756,8258
7.150757,27014
7.151758,7777
7.152754,9602
7.153754,4305
7.154756,10130
7.155754,33080
7.156757,22901
7.157757,22549
7.158758,5857
7.159757,18852
7.160756,10306
7.161753,57902
7.162754,25414
7.163757,9730
7.164757,34744
7.165757,31255
7.166756,5713
7.167756,4881
7.168754,23637
7.169758,3712
7.170757,18180
7.171756,42218
7.172756,11714
7.173755,7569
7.174756,12947
7.175758,23333
7.176755,54301
7.177756,24710
7.178756,5329
7.179755,36504
7.180757,14803
7.181754,32167
7.182757,4032
7.183756,5441
7.184758,4913
7.185758,28342
7.186756,18692
7.187754,6961
7.188757,4449
7.189758,6529
7.190756,6785
7.191757,16868
7.192755,50412
7.193757,20180
7.194756,7105
7.195755,13971
7.196756,42586
7.197757,39801
7.198756,4545
7.199758,5985
7.200755,4769
7.201755,23285
7.202758,7297
7.203821,18436
7.204765,19588
7.205757,18388
7.206756,24565
7.207756,30871
7.208756,4785
7.209758,13971
7.210755,5089
7.211756,4177
7.212756,31031
7.213757,29031
7.214754,4048
7.215757,23541
7.216755,24037
7.217755,10338
7.218755,17924
7.219756,20324
7.220756,9474
7.221757,7041
7.222754,8177
7.223754,12579
7.224756,6785
7.225756,5921
7.226758,21701
7.227756,45915
7.228757,15171
7.229757,14275
7.230758,4513
7.231755,5313
7.232755,7569
7.233756,5425
7.234758,12643
7.235756,4945
7.236756,6945
7.237756,7601
7.238755,6545
7.239756,19620
7.240756,4257
7.241756,4064
7.242756,9426
7.243756,29031
7.244756,7025
7.245756,4032
7.246756,13619
7.247757,31047
7.248755,6145
7.249758,4369
7.250754,9586
7.251756,6673
7.252756,18372
7.253755,33816
7.254757,6817
7.255755,24197
7.256757,23509
7.257756,34888
7.258757,6337
7.259756,12419
7.260758,14099
7.261756,37641
7.262755,12883
7.263756,4657
7.264757,5713
7.265758,7649
7.266757,15363
7.267792,5425
7.268771,10418
7.269758,4705
7.270758,7633
7.271755,4401
7.272755,4385
7.273757,7473
7.274756,6113
7.275756,23749
7.276756,10562
7.277754,17412
7.278755,25222
7.279754,9938
7.280756,7009
7.281755,5009
7.282755,30759
7.283756,5265
7.284755,25862
7.285756,36280
7.286757,9554
7.287758,8161
7.288755,40297
7.289756,6721
7.290756,6065
7.291757,14803
7.292756,18644
7.293756,4705
7.294755,5185
7.295757,6353
7.296758,10114
7.297756,8081
7.298756,6241
7.495656,4433
7.496628,4609
7.497361,20132
7.498070,26918
7.498770,16468
7.499540,19364
7.500240,17348
7.500941,11602
7.501640,17044
7.502361,17412
7.503064,14291
7.503772,6433
7.504475,23941
7.505182,7841
7.505886,12707
7.506590,14915
7.507300,43066
7.508033,42570
7.508745,19812
7.509452,2144
7.510163,8177
7.510874,8177
7.511580,13011
7.512292,41946
7.513002,35688
7.513716,16916
7.514429,3136
7.515148,4161
7.515861,13331
7.516756,8177
7.517758,30055
7.518756,28887
7.519756,14211
7.520755,9362
7.521754,9346
7.522758,13075
7.523754,16964
7.524779,42474
7.525762,23909
7.526756,10930
7.527755,35784
7.528756,39817
7.529755,38137
7.530758,12819
7.531756,13955
7.532758,22613
7.533757,20068
7.534758,4993
7.535756,12210
7.536756,5457
7.537756,8962
7.538754,13635
7.539756,9474
7.540756,8017
7.541755,16083
7.542756,32055
7.543756,12771
7.544756,4225
7.545758,29095
7.546757,8177
7.547758,4064
7.548756,6817
7.549755,16339
7.550756,21493
7.551757,9698
7.552756,5313
7.553755,34984
7.554755,29191
7.555757,16692
7.556754,26150
7.557756,65535
7.558756,47019
7.559757,24758
7.560756,8290
7.561755,8177
7.562755,11154
7.563756,10386
7.564756,36873
7.565755,10594
7.566757,23893
7.567758,25622
7.568756,6801
7.569757,5041
7.570756,6929
7.571757,4273
7.572757,13971
7.573755,7521
7.574756,15347
7.575757,12451
7.576756,7377
7.577755,17444
7.578756,9698
7.579756,22021
7.580756,12291
7.581754,12435
7.582759,22357
7.583756,4529
7.584756,20517
7.585755,27622
7.586757,10562
7.587757,4689
7.588777,9138
7.589761,18788
7.590756,4433
7.591755,6609
7.592757,21077
7.593756,47163
7.594755,54845
7.595756,4833
7.596756,19668
7.597757,35320
7.598756,11218
7.599754,4753
7.600756,6209
7.601758,5473
7.602758,7169
7.603755,6785
7.604756,10370
7.605755,10818
7.606756,22965
7.607756,22949
7.608754,5697
7.609756,6529
7.610756,18084
7.611758,9090
7.612755,23733
7.613756,35208
7.614758,4737
7.615756,12371
7.616755,10050
7.617754,27366
7.618757,10786
7.619758,20436
7.620756,5985
7.621756,6625
7.622755,5025
7.623757,5121
7.624756,14995
7.625757,7569
7.626755,8322
7.627756,15699
7.628757,20677
7.629756,16900
7.630757,6529
7.631758,4961
7.632756,29511
7.633756,16836
7.634756,12323
7.635756,33976
7.636758,18180
7.637756,5825
7.638755,10146
7.639756,16227
7.640755,9010
7.641758,4673
7.642758,21205
7.643755,6577
7.644757,18340
7.645757,21781
7.646756,7585
7.647755,5809
7.648755,7585
7.649756,19028
7.650756,4177
7.651756,22453
7.652773,36824
7.653759,40777
7.654755,16964
7.655756,47371
7.656755,4561
7.657758,22901
7.658756,14771
7.659754,10034
7.660756,20661
7.661756,19380
7.672369,4337
7.672590,4353
7.672800,5249
7.673011,4433
7.673217,3648
7.673425,4769
7.673636,6705
7.673854,11250
7.674067,17780
7.674280,24245
7.674756,18020
7.675756,4609
7.676755,4529
7.677755,3792
7.678756,9698
7.679754,17316
7.680754,9426
7.681756,10466
7.682755,8498
7.683757,9730
7.684756,5905
7.685756,8546
7.686756,10082
7.687756,23557
7.688754,7969
7.802410,19620
7.802957,41226
7.803262,49308
7.803544,53261
7.803829,54941
7.804174,50444
7.804452,39833
7.804739,33512
7.805016,25990
7.805316,22037
7.805599,15171
7.805884,6113
7.806757,19460
7.807755,8274
7.808758,8177
7.809756,10146
7.810757,7793
7.811758,7121
7.812754,5009
7.813759,8177
7.814755,5249
7.815756,4369
7.816757,4225
7.817758,6529
7.818758,16051
7.819755,4609
7.820756,4417
7.821758,15843
7.822758,15955
7.823757,6193
7.824755,7393
7.825756,14483
7.826756,4897
7.827756,11762
7.828757,8065
7.829757,26582
7.830756,19604
7.831756,5425
7.832756,50700
7.833756,11442
7.834756,18884
7.835758,15939
7.836758,22501
7.837754,9858
7.838757,13395
7.839754,16580
7.840757,6721
7.841757,14419
7.842756,17028
7.843795,21205
7.844763,22917
7.845754,26838
7.846757,12499
7.847756,5985
7.848754,16964
7.849756,19844
7.850757,24565
7.851754,9010
7.852756,10482
7.853756,14931
7.854757,21445
7.855758,37033
7.856756,4529
7.857757,4881
7.858756,11170
7.859755,5521
7.860756,4225
7.861756,5809
7.862756,17140
7.863758,19876
7.864757,26038
7.865758,26566
7.866756,24373
7.867756,8097
7.868758,8658
7.869758,3280
7.870752,17812
7.871754,5169
7.872756,7585
7.873754,4353
7.874756,6801
7.875757,4513
7.876756,10306
7.877755,9298
7.878755,6305
7.879757,8097
7.880756,32135
7.881755,30071
7.882754,9122
7.883756,7697
7.884756,4769
7.885756,3472
7.886756,11442
7.887757,16131
7.888755,27526
7.889756,9122
7.890755,21701
7.891757,4193
7.892756,11794
7.893757,7809
7.894755,24565
7.895755,5793
7.896756,4801
7.897757,5729
7.898756,6657
7.899758,18708
7.900756,22325
7.901757,3664
7.902753,3424
7.903757,6337
7.904758,22965
7.905756,4897
7.906756,4305
7.907803,3728
7.908759,12531
7.909758,16067
7.910757,21077
7.911757,6001
7.912756,13747
7.913756,25190
7.914758,12387
7.915753,22565
7.916756,17764
7.917755,7697
7.918755,4385
7.919757,16708
7.920757,5041
7.921756,23253
7.922758,6609
7.923755,4193
7.924756,15155
7.925756,7313
7.926754,24918
7.927756,15683
7.928758,6097
7.929756,9570
7.930756,5185
7.931756,4417
7.932754,5889
7.933754,10050
7.934756,5249
7.935756,9890
7.936757,10546
7.937756,13635
7.938758,6433
7.939756,12114
7.940757,4353
7.941754,23861
7.942756,5521
7.943756,27558
7.944754,4401
7.945755,15635
7.946757,15139
7.947757,14211
7.948756,8786
7.949757,38697
7.950756,42074
7.951755,15427
7.952756,6689
7.953758,12291
7.954757,12002
7.955756,25254
7.956757,5665
7.957754,8242
7.958757,6641
7.959756,4513
7.960757,8434
7.961756,5633
7.962755,4016
7.963755,9282
7.964757,4705
7.965756,4897
7.966757,17380
7.967754,26902
7.968758,6369
7.969754,8738
7.970757,6353
7.971799,11682
7.972768,13555
7.973758,8610
7.974757,20517
7.975757,6065
7.976757,7585
7.977755,9682
7.978756,4321
7.979757,9602
7.980756,4481
7.981756,9650
7.982755,7713
7.983758,11666
7.984758,34856
7.985755,4241
7.986754,6241
7.987757,17444
7.988756,15699
7.989756,28374
7.990757,10402
7.991756,3904
7.992756,9826
7.993759,8930
8.153375,29831
8.154071,32295
8.154520,22693
8.154964,24630
8.155395,17380
8.155899,21429
8.156335,31719
8.156768,11026
8.157196,4241
8.157644,5857
8.158078,8658
8.158512,6577
8.158950,3600
8.159381,4257
8.159817,4977
8.160757,24325
8.161758,8674
8.162756,4881
8.163756,6353
8.164776,6705
8.165760,8658
8.166760,13923
8.167756,3616
8.168757,8770
8.169756,7185
8.170758,7521
8.171756,18788
8.172756,8930
8.173757,4913
8.174758,25830
8.175756,19748
8.176754,3568
8.177754,7441
8.178757,3536
8.179757,13187
8.180755,12323
8.181758,4321
8.182756,20517
8.183754,19332
8.184756,3792
8.185755,3328
8.186756,5809
8.187755,10530
8.188757,8754
8.189757,14179
8.190757,6673
8.191756,10834
8.192758,14131
8.193754,8177
8.194756,7441
8.195757,5169
8.196757,5649
8.197758,6481
8.198756,17956
8.199755,4913
8.200759,16484
8.201756,8338
8.202756,29975
8.203756,23285
8.204755,4801
8.205757,39705
8.206756,39241
8.207755,33128
8.208758,5761
8.209754,6641
8.210755,11938
8.211754,21221
8.212754,3728
8.213758,12002
8.214756,13315
8.215756,14995
8.216754,7345
8.217758,8578
8.218756,9954
8.219759,11362
8.220755,11026
8.221756,3280
8.222756,15443
8.223757,28871
8.224757,14483
8.225755,3744
8.226756,7217
8.227756,4753
8.228771,4289
8.229765,7153
8.230760,7649
8.231757,20052
8.232754,11762
8.233755,5377
8.234757,22229
8.235755,27222
8.236757,10434
8.237756,4449
8.238755,14227
8.239757,14339
8.240756,20677
8.241755,30023
8.242756,6401
8.243756,15811
8.244753,33144
8.245756,29127
8.246756,11618
8.247754,6305
8.248757,29287
8.249755,4097
8.250757,7697
8.251758,9378
8.252756,4129
8.253757,27702
8.254756,19940
8.255756,3376
8.256755,4113
8.257756,3168
8.258754,20933
8.259755,14147
8.260757,7601
8.261757,9538
8.262755,7281
8.263755,7073
8.264755,3776
8.265757,17860
8.266757,5505
8.267756,5809
8.268756,6705
8.269756,13523
8.270756,4897
8.271755,18756
8.272755,8498
8.273756,3408
8.274756,7009
8.275756,3552
8.276756,10754
8.277755,3552
8.278756,13187
8.279755,14787
8.280756,9218
8.281758,24565
8.282758,4401
8.283756,3248
8.284758,25910
8.285757,23173
8.286757,18052
8.287757,9186
8.288756,21557
8.289756,8834
8.290757,24918
8.291756,11138
8.292770,4897
8.293760,9394
8.294757,16724
8.295755,47339
8.296758,37417
8.297757,5729
8.298755,9378
8.299756,33480
8.300756,36200
8.301754,21157
8.302755,3792
8.303757,39721
8.304755,41882
8.305757,5985
8.306756,33112
8.307755,14867
8.308758,8930
8.309755,12643
8.310756,3664
8.311755,7169
8.312755,12258
8.313757,5857
8.314756,4641
8.315756,3360
8.316756,3520
8.317756,5457
8.318754,4353
8.319756,22597
8.320756,4097
8.321757,6977
8.322756,7905
8.323756,7873
8.324758,6289
8.325758,6945
8.326757,7041
8.327755,19412
8.328756,13411
8.329756,6289
8.330756,9938
8.331757,10770
8.332756,3456
8.333756,14755
8.334754,3664
8.335756,4433
8.336756,17156
8.337756,16644
8.338755,8177
8.339758,9810
8.340756,23749
8.341756,4161
8.342756,3648
8.343756,22165
8.344754,17588
8.495805,6961
8.496627,24710
8.497243,17460
8.497834,12755
8.498424,7361
8.499081,5153
8.499667,8177
8.500256,4881
8.500844,7969
8.501447,9074
8.502037,6881
8.502622,7009
8.503214,6817
8.503807,4689
8.504393,9154
8.504986,16932
8.505573,8514
8.506189,5921
8.506781,3904
8.507372,5057
8.507966,4529
8.508756,13219
8.509756,4257
8.510756,5601
8.511756,8177
8.512755,4016
8.513758,9970
8.514757,6529
8.515756,8177
8.516756,11282
8.517755,6465
8.518756,11410
8.519755,4833
8.520756,7041
8.521756,16452
8.522756,23973
8.523755,4145
8.524754,13875
8.525758,5505
8.526754,5169
8.527756,16211
8.528757,3376
8.529754,14115
8.530754,6081
8.531754,19284
8.532755,6449
8.533756,10194
8.534756,4417
8.535758,29063
8.536756,5297
8.537755,7105
8.538756,8177
8.539754,11954
8.540758,4209
8.541756,5121
8.542756,3968
8.543758,22293
8.544757,9266
8.545756,11490
8.546754,5121
8.547758,14739
8.548774,9394
8.549761,12675
8.550758,32808
8.551756,17668
8.552755,9378
8.553754,16388
8.554757,7969
8.555757,15843
8.556758,4865
8.557756,13923
8.558756,3968
8.559758,3808
8.560758,11138
8.561754,22229
8.562757,10482
8.563756,9954
8.564754,11730
8.565756,48475
8.566754,35064
8.567757,44938
8.568756,6017
8.569756,32872
8.570757,8081
8.571756,15075
8.572757,3952
8.573755,9602
8.574756,24565
8.575758,11794
8.576755,7505
8.577756,12483
8.578756,3968
8.579756,23269
8.580755,4545
8.581754,4337
8.582756,23333
8.583757,22357
8.584757,4129
8.585756,5233
8.586756,4145
8.587754,13795
8.588755,9250
8.589758,3840
8.590757,12435
8.591757,4048
8.592757,10770
8.593755,13251
8.594758,14915
8.595755,4737
8.596754,5985
8.597756,9682
8.598756,3472
8.599757,9986
8.600757,10946
8.601756,11682
8.602756,6241
8.603757,4225
8.604755,13475
8.605756,18340
8.606758,4113
8.607756,17060
8.608755,26758
8.609758,18308
8.610758,3808
8.611775,7697
8.612767,9298
8.613758,5137
8.614757,3424
8.615755,5025
8.616755,3808
8.617758,9106
8.618754,5169
8.619756,3584
8.620757,11202
8.621756,4529
8.622755,3936
8.623757,12883
8.624754,16692
8.625756,6609
8.626756,4353
8.627758,9650
8.628757,15443
8.629756,11586
8.630757,31975
8.631758,20244
8.632756,5697
8.633754,7233
8.634756,6961
8.635757,3872
8.636754,5857
8.637757,8642
8.638756,7361
8.639754,13891
8.640755,3920
8.641757,3600
8.642754,3760
8.643756,9378
8.644756,11570
8.645756,19268
8.646756,12018
8.647757,3920
8.648756,7217
8.649755,30951
8.650757,34376
8.651756,20821
8.652756,19092
8.653756,17956
8.654755,20501
8.655756,35144
8.656754,33768
8.657756,7393
8.658756,30711
8.659757,33352
8.660754,13363
8.661756,4497
8.662756,6353
8.663754,7745
8.664756,7025
8.665756,12467
8.666756,19284
8.667756,7857
8.668755,4000
8.669756,18180
8.670757,4305
8.671754,11762
8.672757,4529
8.673756,4993
8.674757,20933
8.675769,18340
8.676763,9362
8.677761,8754
8.678760,34712
8.679756,24565
8.680756,3328
8.681755,12931
8.682756,6017
8.683756,5857
8.684756,11698
8.685756,11090
8.686755,7393
8.800919,6257
8.801929,7937
8.802694,8177
8.803443,17684
8.804356,22693
8.805197,4064
8.805950,16275
8.806694,23829
8.807443,5953
8.808210,3424
8.808965,11842
8.809715,31847
8.810475,24565
8.811231,14611
8.811984,3648
8.812738,8402
8.813487,12323
8.814266,24117
8.815024,18596
8.815782,18468
8.816538,13123
8.817299,7729
8.818058,10562
8.818814,25910
8.819575,14211
8.820336,3552
8.821098,8145
8.821862,21909
8.822625,18404
8.823391,4785
8.824152,5473
8.824915,11890
8.825755,10786
8.826755,4000
8.827755,8402
8.828756,12082
8.829755,15779
8.830756,17588
8.831756,4657
8.832755,8177
8.833756,5921
8.834758,19076
8.835755,15843
8.836757,3968
8.837755,19172
8.838755,12579
8.839757,3840
8.840756,29463
8.841756,16868
8.842757,17284
8.843755,24085
8.844756,4529
8.845757,13107
8.846756,5313
8.847758,3632
8.848754,4993
8.849758,8754
8.850755,6481
8.851756,29783
8.852756,4433
8.853755,25446
8.854757,17108
8.855757,8402
8.856756,13123
8.857756,7937
8.868066,11602
8.868305,5265
8.868518,5361
8.868731,6593
8.868944,6753
8.869152,4337
8.869367,6641
8.869579,18148
8.869795,26694
8.870010,27814
8.870756,24565
8.871756,27702
8.872756,10402
8.873756,42842
8.874758,35816
8.875757,4161
8.876757,34248
8.877757,16227
8.878756,4321
8.879758,3584
8.880756,3632
8.881758,3840
8.882757,11442
8.883756,5633
8.884755,3680
8.885758,12931
8.886756,16355
8.887756,3680
8.888756,11954
8.889757,18468
8.890758,14483
8.891754,9298
8.892755,8914
8.893755,50924
8.894755,5473
8.895756,25750
8.896756,27574
8.897755,29415
8.898757,4064
8.899754,10962
8.900757,22053
8.901756,6225
8.902756,8354
8.903755,10258
8.904757,6993
8.905757,18852
8.906758,8177
8.907756,20901
8.908757,10898
8.909758,4129
8.910756,16019
8.911757,17092
8.912756,3616
8.913756,4449
8.914756,3424
8.915756,7009
8.916754,14611
8.917754,13171
8.918756,4817
8.919756,19380
8.920756,10082
8.921756,24565
8.922757,10466
8.923755,27302
8.924755,4865
8.925755,42010
8.926757,18660
8.927757,4016
8.928756,7425
8.929756,23221
8.930757,30631
8.931756,7873
8.932771,35272
8.933759,4385
8.934758,14515
8.935756,10914
8.936757,12162
8.937756,14659
8.938757,17444
8.939758,36632
8.940756,7825
8.941756,9058
8.942757,8978
8.943756,3984
8.944755,5937
8.945755,3808
8.946754,9186
8.947757,11746
8.948756,4369
8.949756,7345
8.950757,5265
8.951754,17492
8.952756,3408
8.953756,4913
8.954758,19540
8.955756,44266
8.956756,24998
8.957758,9026
8.958756,26358
8.959757,45291
8.960756,57181
8.961756,15443
8.962756,3712
8.963758,8418
8.964757,23253
8.965756,7617
8.966756,3552
8.967754,8129
8.968756,4337
8.969756,12323
8.970755,6225
8.971756,3904
8.972757,3360
8.973756,7329
8.974756,6609
8.975756,18404
8.976756,18980
8.977758,10210
8.978759,21125
8.979757,18068
8.980757,5649
8.981757,3808
8.982756,15763
8.983755,23557
8.984756,20004
8.985757,4609
8.986754,7377
8.987754,14019
8.988756,4961
8.989755,5409
8.990756,8978
8.991757,5009
8.992755,4113
8.993757,4545
8.994754,8322
9.162515,14467
9.163121,15827
9.163481,30855
9.163840,23733
9.164183,11682
9.164591,7665
9.164938,7889
9.165277,7041
9.165620,6545
9.165984,4000
9.166323,7025
9.166662,5521
9.167010,3616
9.167758,12483
9.168755,16676
9.169756,10978
9.170757,14035
9.171757,33704
9.172757,11282
9.173755,26038
9.174755,11954
9.175755,22837
9.176758,23381
9.177758,11026
9.178756,12226
9.179757,32167
9.180754,10866
9.181758,15315
9.182758,9490
9.183756,4129
9.184756,6289
9.185756,5057
9.186756,9202
9.187756,4000
9.188776,10962
9.189764,6353
9.190756,4545
9.191755,16516
9.192755,14019
9.193756,10210
9.194757,14339
9.195756,17796
9.196756,10002
9.197756,4673
9.198758,5713
9.199756,13155
9.200757,38137
9.201757,21589
9.202757,4913
9.203757,7905
9.204756,11522
9.205756,7137
9.206756,39321
9.207758,4097
9.208754,4337
9.209758,4817
9.210757,3760
9.211757,3680
9.212756,6913
9.213754,6081
9.214756,4689
9.215756,5089
9.216757,3984
9.217758,4385
9.218756,4193
9.219755,13091
9.220756,5521
9.221757,6977
9.222756,4801
9.223754,6993
9.224754,27542
9.225757,21093
9.226757,8850
9.227755,28502
9.228756,23285
9.229758,5249
9.230755,8578
9.231757,4673
9.232758,6353
9.233754,4625
9.234756,3824
9.235756,9986
9.236756,21717
9.237758,35064
9.238756,9170
9.239759,3872
9.240758,28422
9.241756,30455
9.242755,7633
9.243756,9954
9.244757,4481
9.245754,13507
9.246756,8226
9.247756,16307
9.248756,3776
9.249755,7345
9.250756,14083
9.251756,16836
9.252772,5985
9.253760,4849
9.254756,12979
9.255755,4225
9.256755,17828
9.257756,22149
9.258757,4481
9.259756,18468
9.260756,13747
9.261757,5841
9.262758,14019
9.263756,25926
9.264755,20485
9.265758,5617
9.266758,13219
9.267757,3936
9.268755,3872
9.269758,18676
9.270756,14115
9.271756,8081
9.272756,6705
9.273754,4305
9.274756,5393
9.275758,4225
9.276757,4016
9.277755,18356
9.278756,4353
9.279757,31831
9.280756,12371
9.281758,4097
9.282758,11538
9.283757,44874
9.284755,16436
9.285757,14755
9.286757,24870
9.287758,26550
9.288758,34408
9.289756,19332
9.290755,6561
9.291756,26326
9.292757,7041
9.293756,15427
9.294757,4449
9.295757,12931
9.296756,13859
9.297758,4048
9.298759,13187
9.299757,3648
9.300757,15187
9.301756,4080
9.302755,12130
9.303755,6929
9.304755,14771
9.305758,3712
9.306754,4801
9.307756,15267
9.308755,7313
9.309758,4353
9.310756,21333
9.311756,10530
9.312757,4609
9.313758,3856
9.314756,5025
9.315756,7249
9.316771,8210
9.317765,9154
9.318758,15459
9.319756,10418
9.320755,4497
9.321756,4097
9.322756,15411
9.323754,5409
9.324758,8706
9.325757,8210
9.326755,5009
9.327757,31415
9.328756,4369
9.329759,6097
9.330756,7025
9.331756,21941
9.332756,4097
9.333756,3936
9.334756,4080
9.335757,27606
9.336757,26118
9.337755,4305
9.338756,20052
9.339756,3968
9.340756,4161
9.341756,13379
9.342758,5889
9.343756,3616
9.344758,11282
9.345756,5921
9.346756,4225
9.347756,4817
9.348756,16740
9.349757,25766
9.350756,11362
9.351756,5441
9.352757,9298
9.353754,6817
9.507552,3616
9.508316,4689
9.509008,8642
9.509512,17444
9.510014,27750
9.510574,42522
9.511067,32247
9.511561,15667
9.512057,9842
9.512568,11330
9.513068,3776
9.513562,4785
9.514067,21941
9.514564,29991
9.515067,27910
9.515563,17780
9.516064,18148
9.516756,26150
9.517758,10450
9.518757,7185
9.519757,15139
9.520754,28118
9.521755,13683
9.522757,4193
9.523756,12931
9.524756,4289
9.525758,20997
9.526756,10706
9.527758,6417
9.528755,8242
9.529758,4897
9.530758,3856
9.531756,16131
9.532757,10258
9.533756,7873
9.534756,16948
9.535756,4625
9.536757,6305
9.537756,19236
9.538756,15571
9.539756,6017
9.540756,9154
9.541756,28342
9.542754,10370
9.543755,12963
9.544757,34104
9.545756,4032
9.546757,15891
9.547756,8962
9.548756,5073
9.549757,4833
9.550756,6305
9.551756,22901
9.552756,4497
9.553757,9058
9.554754,7377
9.555756,10706
9.556755,7713
9.557757,4513
9.558756,28310
9.559756,15315
9.560756,6881
9.561756,5537
9.562755,6017
9.563757,36969
9.564756,5441
9.565759,4593
9.566756,35352
9.567756,16740
9.568756,26694
9.569757,10162
9.570756,40169
9.571757,7585
9.572771,36536
9.573762,19972
9.574755,4897
9.575756,4833
9.576756,17460
9.577756,8706
9.578758,8738
9.579756,34456
9.580757,29415
9.581757,5409
9.582757,21253
9.583754,29463
9.584757,4289
9.585757,10754
9.586757,16852
9.587758,5521
9.588756,16596
9.589758,6977
9.590755,9874
9.591758,4865
9.592756,7569
9.593754,17316
9.594758,10946
9.595757,16548
9.596757,8177
9.597757,32071
9.598757,29095
9.599756,4577
9.600755,8274
9.601755,11618
9.602755,38633
9.603757,7169
9.604755,9650
9.605756,4673
9.606757,16275
9.607758,6177
9.608757,5009
9.609756,3792
9.610757,10530
9.611755,24469
9.612756,5265
9.613756,11906
9.614757,17060
9.615757,4945
9.616756,9618
9.617756,15267
9.618755,7393
9.619757,20613
9.620756,5121
9.621756,10722
9.622757,8097
9.623754,9234
9.624756,26374
9.625756,5329
9.626755,10610
9.627755,7633
9.628756,4241
9.629757,8113
9.630756,9458
9.631758,4385
9.632755,7041
9.633755,8466
9.634757,14691
9.635776,5553
9.636763,5825
9.637761,8658
9.638757,5185
9.639759,6097
9.640757,6353
9.641757,13491
9.642757,5329
9.643755,12291
9.644758,22693
9.645754,4401
9.646756,16596
9.647754,22821
9.648756,10050
9.649758,41066
9.650756,20677
9.651755,11874
9.652756,11826
9.653756,46411
9.654756,6913
9.655757,23653
9.656756,11826
9.657758,41082
9.658756,47931
9.659754,16676
9.660757,4929
9.661756,11234
9.662756,9474
9.663757,13859
9.664756,25670
9.665756,15251
9.666753,5761
9.667756,9138
9.668756,16003
9.669757,15203
9.670756,5409
9.671757,12931
9.672754,13331
9.673755,7297
9.674756,13715
9.675754,4257
9.676755,11186
9.677755,6545
9.678757,4241
9.679756,7041
9.680757,22997
9.681756,40793
9.682756,26118
9.683756,6545
9.684757,27750
9.685756,44858
9.686756,48027
9.687755,33576
9.688757,33976
9.689757,32151
9.690757,53228
9.691755,10770
9.692756,8610
9.693755,12963
9.694756,14803
9.695756,4481
9.696755,4225
9.697759,15539
9.698757,12194
9.853996,15235
9.854899,22421
9.855571,6817
9.856225,5649
9.856876,31175
9.857587,23781
9.858234,22421
9.858881,4433
9.859526,5489
9.860194,7121
9.860842,8802
9.861490,5185
9.862138,11458
9.862793,13635
9.863438,4529
9.864089,29719
9.864742,33640
9.865415,38809
9.866070,14691
9.866728,6737
9.867378,4241
9.868036,3600
9.868758,13571
9.869755,24806
9.870756,6369
9.871758,10178
9.872756,5217
9.873757,6801
9.874756,7217
9.875758,11154
9.876756,12531
9.877757,4465
9.878758,4641
9.879757,3984
9.880758,5025
9.881756,7553
9.882757,6193
9.883756,17508
9.884756,10498
9.885756,7377
9.886757,29063
9.887756,34456
9.888756,10514
9.889757,9154
9.890756,13715
9.891786,40505
9.892762,28438
9.893758,13715
9.894758,8177
9.895756,18052
9.896756,26694
9.897756,4337
9.898755,7569
9.899756,16868
9.900757,5137
9.901756,30727
9.902757,8338
9.903756,12595
9.904755,4401
9.905757,27702
9.906755,13139
9.907756,32471
9.908756,22149
9.909755,29255
9.910756,22917
9.911757,26966
9.912756,4673
9.913756,12771
9.914755,20997
9.915756,6385
9.916755,7553
9.917756,11378
9.918755,7889
9.919756,7697
9.920756,4577
9.921755,7937
9.922754,4193
9.923757,13059
9.924756,5713
9.925756,4401
9.926754,11074
9.927756,8322
9.928754,4353
9.929756,4048
9.930757,16564
9.931754,5473
9.932755,15747
9.933757,5729
9.934758,12643
9.935756,21685
9.936756,15299
9.937756,8530
9.938756,13363
9.939757,29975
9.940754,17828
9.941755,30487
9.942756,21749
9.943758,7473
9.944755,7569
9.945754,5201
9.946756,4897
9.947756,5649
9.948754,6017
9.949755,5121
9.950756,22885
9.951758,29703
9.952756,12979
9.953756,6273
9.954756,7089
9.955832,7825
9.956761,14835
9.957761,7921
9.958756,4897
9.959756,7041
9.960756,15443
9.961758,4577
9.962756,21813
9.963756,7249
9.964755,4673
9.965758,6321
9.966756,23173
9.967756,8594
9.968757,10658
9.969757,7905
9.970755,5425
9.971757,4497
9.972757,15251
9.973756,12771
9.974756,5345
9.975755,4273
9.976754,16548
9.977758,26006
9.978757,13555
9.979756,5265
9.980757,10658
9.981756,32039
9.982754,33880
9.983756,4545
9.984756,5521
9.985756,4929
9.986757,9810
9.987757,4321
9.988756,7841
9.989757,5121
9.990756,21605
9.991758,8930
9.992754,4705
9.993756,4097
9.994757,7553
9.995753,17092
9.996756,6113
9.997755,21253
9.998755,34888
9.999756,7873
10.000755,16275
10.002474,2368
10.003370,4385
10.004148,5441
10.004890,7985
10.005756,9682
10.006755,4865
10.007755,19460
10.008757,9762
10.009756,15571
10.010755,10946
10.011757,44442
10.012755,49980
10.013757,24886
10.014756,23845
10.015756,5505
10.016758,5889
10.017756,21653
10.018757,5761
10.019834,7633
10.020777,5025
10.021761,4080
10.022756,6321
10.023757,7009
10.024758,5825
10.025754,7489
10.026755,7953
10.027755,8418
10.028757,17060
10.029755,4385
10.030756,6417
10.031755,10738
10.032755,13779
10.033757,6993
10.034757,8498
10.035756,7681
10.036754,5969
10.037756,24277
10.038755,16115
10.039754,17988
10.040757,6561
10.041758,12691
10.042756,18500
10.043756,12979
10.044755,38361
10.045756,18612
10.160527,21717
10.161601,32776
10.162444,8546
10.163265,4497
10.164078,43274
10.164965,47339
10.165779,33000
10.166591,8177
10.167407,7697
10.168236,34824
10.169050,7089
10.169868,19732
10.170684,6561
10.171503,5953
10.178842,6561
10.179070,5121
10.179284,4817
10.179506,4945
10.179723,3520
10.179932,6241
10.180148,8242
10.180365,14099
10.180581,18372
10.180800,17892
10.181756,7889
10.182756,7137
10.183756,33992
10.184756,23125
10.185754,10146
10.186756,21061
10.187755,10562
10.188754,7057
10.189755,8017
10.190756,13635
10.191756,7153
10.192757,6721
10.193757,6865
10.194755,20709
10.195756,7905
10.196756,6609
10.197758,12835
10.198757,5473
10.199755,7969
10.200757,8001
10.201758,9266
10.202756,4897
10.203756,36760
10.204754,35464
10.205756,10498
10.206756,9442
10.207757,9538
10.208759,5665
10.209757,6929
10.210757,6593
10.211756,7185
10.212779,9026
10.213763,7985
10.214760,8866
10.215756,31111
10.216758,16724
10.217758,6369
10.218758,4705
10.219756,8914
10.220756,9250
10.221756,4897
10.222757,8177
10.223759,17700
10.224757,5057
10.225756,8402
10.226758,6961
10.227755,4945
10.228756,6945
10.229756,11314
10.230757,7249
10.231756,6369
10.232758,16436
10.233756,7745
10.234756,9506
10.235758,23589
10.236757,10706
10.237757,18916
10.238753,4385
10.239756,4401
10.240755,13139
10.241758,48523
10.242755,42506
10.243755,16035
10.244757,10050
10.245754,10882
10.246759,17828
10.247756,6337
10.248755,7665
10.249757,5937
10.250757,9474
10.251756,5441
10.252756,4577
10.253757,23653
10.254756,41290
10.255758,8354
10.256756,5633
10.257756,15315
10.258758,40970
10.259756,56797
10.260756,15699
10.261756,6385
10.262756,8594
10.263757,7089
10.264756,4929
10.265756,12066
10.266756,11458
10.267758,17508
10.268756,16339
10.269757,19124
10.270754,12803
10.271758,5553
10.272756,5761
10.273756,13107
10.274757,8210
10.275756,7953
10.276769,3472
10.277762,15571
10.278758,16163
10.279754,14883
10.280756,18180
10.281757,6305
10.282755,10434
10.283756,19332
10.284756,8194
10.285756,17620
10.286756,14947
10.287757,9794
10.288755,9042
10.289756,33720
10.290756,12483
10.291756,23509
10.292756,13491
10.293757,4561
10.294757,17812
10.295756,13219
10.296756,10434
10.297756,18980
10.298756,31415
10.299755,32183
10.300756,8226
10.301758,5809
10.302756,5505
10.303756,12963
10.304756,8290
10.305756,8177
10.306755,8466
10.307758,5521
10.308754,5105
10.309756,6113
10.310755,4769
10.311752,12563
10.312756,14563
10.313756,7377
10.314754,9010
10.315758,24357
10.316755,8129
10.317757,15939
10.318756,14371
10.319756,10178
10.320757,30023
10.321756,31335
10.322757,22677
10.323758,5633
10.324758,32151
10.325757,56445
10.326756,46763
10.327756,10018
10.328756,14003
10.329758,14419
10.330758,6321
10.331758,14275
10.332756,7937
10.333756,17428
10.334756,11442
10.335755,4721
10.336756,13619
10.337756,5137
10.338756,4561
10.339756,4289
10.340772,6689
10.341761,6977
10.342757,5553
10.343757,5857
10.344758,6337
10.345759,4513
10.346756,5809
10.347756,4433
10.348756,5121
10.349758,3504
10.350757,4641
10.351756,12034
10.352756,7857
10.353755,4353
10.354759,4048
10.355756,6337
10.356756,5265
10.522348,6801
10.523006,3280
10.523412,5265
10.523804,5777
10.524183,5121
10.524630,4641
10.525009,4817
10.525384,5201
10.525765,6241
10.526153,7441
10.526528,9250
10.526904,7889
10.527279,8177
10.527757,7249
10.528756,6033
10.529758,6097
10.530756,5153
10.531755,3888
10.532781,5681
10.533764,4113
10.534762,7697
10.535757,5521
10.536756,4241
10.537755,4641
10.538757,4257
10.539755,5281
10.540756,7553
10.541754,4529
10.542754,4080
10.543757,4305
10.544757,8177
10.545756,5921
10.546756,3984
10.547757,5521
10.548753,4241
10.549757,4785
10.550756,4545
10.551756,6561
10.552754,4129
10.553756,5425
10.554755,3616
10.555755,9666
10.556755,7569
10.557756,7313
10.558756,4385
10.559755,9874
10.560757,5697
10.561756,5009
10.562757,4609
10.563754,5361
10.564755,7185
10.565756,5041
10.566758,4193
10.567756,4016
10.568756,4673
10.569757,4289
10.570757,5041
10.571756,4673
10.572756,4881
10.573758,3280
10.574757,5137
10.575756,7857
10.576758,5905
10.577755,4225
10.578757,4353
10.579758,4241
10.580756,5121
10.581756,5121
10.582755,4113
10.583755,3984
10.584756,4305
10.585757,5377
10.586756,4000
10.587759,6145
10.588757,5585
10.589756,5633
10.590755,5825
10.591756,5393
10.592756,3840
10.593757,6225
10.594758,5729
10.595755,3936
10.596775,3232
10.597764,11906
10.598759,8258
10.599758,4849
10.600757,8194
10.601755,5585
10.602756,4000
10.603755,3408
10.604756,3888
10.605754,4273
10.606756,4241
10.607756,4129
10.608755,5057
10.609756,4593
10.610758,7009
10.611756,7233
10.612757,4321
10.613755,6369
10.614756,3808
10.615757,3920
10.616753,3824
10.617754,3552
10.618756,4513
10.619758,4016
10.620756,3840
10.621757,5153
10.622756,3952
10.623756,3968
10.624756,4369
10.625757,4737
10.626757,6817
10.627756,4545
10.628757,6625
10.629754,3856
10.630756,4305
10.631755,4032
10.632755,5761
10.633756,3584
10.634756,5857
10.635757,6865
10.636757,5985
10.637757,15875
10.638756,5169
10.639756,6465
10.640756,3904
10.641758,4273
10.642757,4913
10.643757,4097
10.644755,3904
10.645757,5265
10.646756,6273
10.647756,3408
10.648757,6401
10.649757,6689
10.650757,5089
10.651756,4913
10.652757,6689
10.653756,4513
10.654757,5297
10.655757,4513
10.656756,3648
10.657756,5217
10.658754,3392
10.659757,6225
10.660777,3536
10.661761,3920
10.662757,6369
10.663755,4305
10.664756,4161
10.665756,4545
10.666756,6689
10.667756,5953
10.668757,4833
10.669758,6529
10.670755,5537
10.671755,4193
10.672755,4481
10.673758,6817
10.674756,5793
10.675756,3536
10.676756,5777
10.677756,5393
10.678756,3568
10.679756,4161
10.680755,5537
10.681757,5057
10.682756,4657
10.683758,4129
10.684755,3792
10.685757,3296
10.686755,3552
10.687757,5457
10.688758,5361
10.689756,4689
10.690755,3888
10.691754,2752
10.692757,5617
10.693755,7137
10.694753,4048
10.695756,6657
10.696757,4353
10.697758,4113
10.698757,4016
10.699758,4353
10.700757,5281
10.701756,3392
10.702757,4193
10.703757,4241
10.704756,3792
10.705755,3552
10.706755,4641
10.707758,8786
10.708756,5697
10.709756,3408
10.710755,3552
10.711756,4129
10.712757,8626
10.713757,4161
10.865248,5841
10.866033,3360
10.866580,3152
10.867119,4705
10.867647,5985
10.868244,6033
10.868776,5121
10.869303,4257
10.869832,3264
10.870378,3888
10.870910,4225
10.871435,4417
10.871969,3936
10.872501,2240
10.873031,3808
10.873559,6049
10.874097,4305
10.874756,3280
10.875756,2864
10.876756,3504
10.877754,3248
10.878756,7009
10.879756,3264
10.880757,2816
10.881757,3376
10.882756,3216
10.883757,3280
10.884757,2704
10.885756,3248
10.886756,5281
10.887756,3008
10.888755,4273
10.889754,4321
10.890756,3600
10.891756,4161
10.892757,4865
10.893756,4097
10.894754,2768
10.895757,4577
10.896757,4849
10.897753,3328
10.898757,5441
10.899755,6081
10.900757,4321
10.901756,3040
10.902756,3296
10.903757,3632
10.904759,3280
10.905757,3104
10.906755,2688
10.907757,3648
10.908756,4545
10.909754,5761
10.910757,4833
10.911756,3248
10.912755,4161
10.913756,3200
10.914756,3888
10.915872,3616
10.916762,4161
10.917756,2720
10.918758,7265
10.919755,4769
10.920758,5441
10.921757,3216
10.922755,3232
10.923756,3648
10.924754,3536
10.925757,3120
10.926758,3616
10.927757,3904
10.928757,2960
10.929756,2848
10.930757,5569
10.931757,3744
10.932756,3600
10.933756,3344
10.934755,3600
10.935756,4577
10.936757,5825
10.937756,3600
10.938758,3888
10.939756,3664
10.940758,3632
10.941758,3088
10.942757,3920
10.943757,3616
10.944756,2736
10.945756,3248
10.946756,3120
10.947756,4305
10.948758,7697
10.949755,6017
10.950758,3488
10.951756,3024
10.952755,2656
10.953759,3808
10.954758,3600
10.955756,3664
10.956756,4000
10.957753,4161
10.958758,3776
10.959756,3456
10.960758,3856
10.961756,3104
10.962758,3088
10.963757,3280
10.964757,3728
10.965757,3312
10.966755,4577
10.967757,3680
10.968754,5825
10.969755,4753
10.970756,3264
10.971756,2704
10.972758,3424
10.973757,6369
10.974758,3920
10.975756,3392
10.976757,4097
10.977756,6977
10.978758,5297
10.979756,4273
10.980770,4032
10.981761,3920
10.982757,3744
10.983757,2832
10.984756,3008
10.985756,4289
10.986757,4945
10.987755,4177
10.988757,6113
10.989754,3168
10.990756,3584
10.991755,3104
10.992758,3408
10.993754,4785
10.994759,3104
10.995756,3248
10.996755,3840
10.997756,3584
10.998756,2880
10.999756,3008
11.000756,2848
11.001756,3328
11.002756,4881
11.003757,4529
11.004757,3072
11.005755,3296
11.006755,5441
11.007757,5889
11.008756,6497
11.009759,6897
11.010756,6913
11.011756,3600
11.012755,7185
11.013758,4961
11.014755,5537
11.015756,5665
11.016756,4273
11.017758,4801
11.018753,3264
11.019756,4289
11.020756,3136
11.021756,4000
11.022756,4609
11.023757,3936
11.024758,2944
11.025755,3072
11.026756,4513
11.027755,2608
11.028755,3248
11.029757,5089
11.030758,4273
11.031756,3360
11.032754,3040
11.033756,4609
11.034757,2816
11.035757,3040
11.036754,3712
11.037756,6161
11.038755,3280
11.039755,2656
11.040758,3376
11.041756,3840
11.042758,3424
11.043756,4273
11.044774,6017
11.045759,3600
11.046758,5457
11.047755,3280
11.048757,3040
11.049755,2912
11.050755,4032
11.051758,3792
11.052756,4048
11.053758,3216
11.054756,4064
11.055757,4048
11.056758,4625
11.209998,3024
11.210928,3248
11.211634,4113
11.212326,3376
11.213007,4016
11.213754,6689
11.214434,8610
11.215120,6369
11.215803,5937
11.216505,3552
11.217193,3872
11.217879,3728
11.218564,4689
11.219247,4097
11.219935,4064
11.220620,6113
11.221308,5137
11.222017,3840
11.222698,3136
11.223387,6465
11.224077,8177
11.224771,3664
11.225459,4961
11.226149,3728
11.226841,3824
11.227755,3024
11.228756,4193
11.229758,5185
11.230757,3600
11.231753,3104
11.232756,6737
11.233757,4000
11.234756,3136
11.235773,3808
11.236761,3424
11.237759,4625
11.238756,2560
11.239756,4625
11.240758,3760
11.241755,2720
11.242758,2896
11.243756,3600
11.244757,4897
11.245756,3232
11.246756,2944
11.247758,2976
11.248756,6897
11.249756,5905
11.250755,4193
11.251756,3328
11.252758,3424
11.253756,2848
11.254755,3392
11.255756,2896
11.256755,3728
11.257756,3728
11.258756,6113
11.259754,4497
11.260756,3680
11.261757,3888
11.262756,4016
11.263755,3520
11.264758,2848
11.265756,3200
11.266756,4609
11.267756,3680
11.268756,3104
11.269758,7425
11.270756,3840
11.271755,6593
11.272756,4801
11.273756,3168
11.274757,3888
11.275756,5121
11.276757,3408
11.277757,3792
11.278758,2944
11.279756,4545
11.280756,5201
11.281756,3904
11.282756,2880
11.283756,3632
11.284755,3328
11.285758,2896
11.286756,3504
11.287755,6705
11.288755,2880
11.289756,4577
11.290755,3392
11.291756,4609
11.292756,3264
11.293755,7777
11.294757,5393
11.295756,5569
11.296756,4529
11.297756,5537
11.298753,5777
11.299775,4449
11.300761,3088
11.301758,3040
11.302756,3664
11.303754,5505
11.304754,3840
11.305756,2768
11.306754,3088
11.307755,2848
11.308755,3280
11.309754,3296
11.310756,3392
11.311757,3072
11.312758,2960
11.313758,4433
11.314755,3680
11.315757,3296
11.316755,3456
11.317757,3536
11.318756,3280
11.319756,3216
11.320757,5665
11.321756,3664
11.322755,2624
11.323758,3088
11.324758,3056
11.325758,3456
11.326756,4401
11.327757,3984
11.328755,2944
11.329759,4481
11.330755,2736
11.331757,3664
11.332755,3760
11.333754,4145
11.334755,8210
11.335756,5441
11.336758,2752
11.337754,3024
11.338758,2752
11.339757,4481
11.340755,3600
11.341756,3360
11.342757,3760
11.343756,3632
11.344756,4417
11.345757,3376
11.346756,3680
11.347756,3504
11.348754,2736
11.349755,2704
11.350757,2816
11.351759,4449
11.352757,5233
11.353755,3040
11.354757,4961
11.355756,4257
11.356756,3088
11.357756,3008
11.358757,2992
11.359757,2768
11.360757,3056
11.361756,4321
11.362756,7057
11.363774,3872
11.364762,3136
11.365760,3008
11.366757,3536
11.367757,2912
11.368755,3344
11.369756,5969
11.370756,4193
11.371755,4385
11.372757,3920
11.373757,3168
11.374756,4497
11.375756,2992
11.376754,3088
11.377756,3024
11.378754,3152
11.379756,4897
11.380756,3760
11.381756,2816
11.382758,5265
11.383756,3968
11.384758,2976
11.385756,3248
11.386755,2848
11.387757,3888
11.388756,5089
11.389754,3312
11.390756,3360
11.391754,5169
11.392758,2864
11.393754,3776
11.394756,3696
11.395755,3248
11.396757,3552
11.397755,3264
11.398756,3216
11.399756,5633
11.400756,3008
11.401756,2912
11.520114,4785
11.520607,4016
11.520897,4080
11.521138,4113
11.521378,4321
11.521639,4753
11.521886,4753
11.522127,4257
11.522366,5057
11.522627,5089
11.522876,4657
11.523757,3792
11.524756,3280
11.525757,2896
11.526754,3872
11.527756,6801
11.528756,3024
11.529756,4625
11.530754,3216
11.531756,3840
11.532758,4113
11.533755,4497
11.534757,4433
11.535756,4241
11.536756,3648
11.537754,3152
11.538756,3040
11.539754,3296
11.540755,3264
11.541756,3600
11.542756,4961
11.543756,3712
11.544758,3040
11.545756,4161
11.546755,3664
11.547756,3376
11.548755,3760
11.549755,3552
11.550757,3216
11.551756,3168
11.552755,2880
11.553758,4545
11.554755,3088
11.555901,3232
11.556760,3888
11.557756,2768
11.558756,4945
11.559755,4513
11.560755,3280
11.561755,4929
11.562757,3776
11.563755,6561
11.564756,3248
11.565757,3968
11.566757,3264
11.567757,3072
11.568756,5377
11.569756,3552
11.570756,4321
11.571756,4753
11.572755,3152
11.573756,4161
11.574757,4737
11.575754,2960
11.576756,5713
11.577756,7201
11.578756,3488
11.579759,3792
11.580756,3856
11.581756,3200
11.582755,2880
11.583758,3808
11.584757,3680
11.585757,2944
11.586758,3024
11.587755,3040
11.588756,3408
11.589755,3136
11.590756,3040
11.591756,3136
11.592754,6081
11.593755,2864
11.594756,4048
11.595757,4177
11.596756,5473
11.597756,4929
11.598758,3408
11.599756,2896
11.600757,3360
11.601756,3200
11.602756,2976
11.603755,3344
11.604758,3312
11.605756,4257
11.606756,3456
11.607756,3168
11.608757,3200
11.609756,5297
11.610757,5409
11.611756,13459
11.612756,4497
11.613756,5313
11.614754,3648
11.615755,4241
11.616756,2992
11.617758,2896
11.618757,3056
11.619756,3040
11.620773,4161
11.621761,3872
11.622756,4513
11.623756,3664
11.624757,3072
11.625758,3536
11.626756,3248
11.627757,3520
11.628757,3888
11.629756,3392
11.630756,3040
11.631757,5201
11.632757,3024
11.633757,3216
11.634756,3392
11.635756,3248
11.636755,3264
11.637756,5153
11.638756,4801
11.639757,3040
11.640757,2816
11.641756,3072
11.642756,3104
11.643757,4129
11.644756,5233
11.645756,3520
11.646757,3072
11.647753,5073
11.648756,5281
11.649756,3856
11.650758,3072
11.651758,4801
11.652756,3168
11.653756,3072
11.654756,4225
11.655757,2832
11.656756,3072
11.657755,3856
11.658756,3504
11.659757,3168
11.660755,3280
11.661756,3536
11.662757,3760
11.663758,5249
11.664757,3408
11.665757,3760
11.666756,3984
11.667756,2864
11.668758,2656
11.669757,2944
11.670756,3840
11.671757,3008
11.672757,3312
11.673757,2864
11.674754,2864
11.675756,2960
11.676757,2624
11.677757,4209
11.678757,3520
11.679756,3664
11.680758,3536
11.681756,4016
11.682756,3648
11.683757,3712
11.684767,4609
11.685758,3488
11.686757,2944
11.687757,3024
11.688755,3040
11.689758,2944
11.690759,3040
11.691755,3568
11.692757,3472
11.693756,3520
11.694758,3392
11.695755,4657
11.696756,5505
11.697756,4113
11.698756,2656
11.699756,4241
11.700757,2864
11.701758,3856
11.702756,3024
11.703756,2880
11.704754,4785
11.705758,2896
11.706756,3136
11.707754,5265
11.708755,3920
11.709757,5345
11.710757,3856
11.711756,3376
11.876123,3376
11.876894,3152
11.877334,3296
11.877745,3904
11.878143,4225
11.878607,5153
11.879006,4113
11.879403,3712
11.879800,3632
11.880214,2944
11.880607,3152
11.881008,3088
11.881407,2624
11.881808,3344
11.882757,3680
11.883758,3200
11.884756,4913
11.885756,3552
11.886756,3088
11.887757,4161
11.888756,3408
11.889756,3296
11.890757,3424
11.891757,3744
11.892757,2896
11.893757,3136
11.894757,4705
11.895757,3456
11.896758,3280
11.897756,3488
11.898753,3584
11.899756,3760
11.900757,3072
11.901756,3744
11.902756,3280
11.903758,2864
11.904756,3072
11.905756,3024
11.906756,3072
11.907757,3744
11.908755,3728
11.909757,4016
11.910756,3344
11.911754,3424
11.912757,3760
11.913756,3328
11.914757,3488
11.915758,3760
11.916754,3776
11.917758,3648
11.918757,3728
11.919758,3408
11.920754,3280
11.921756,3200
11.922757,3296
11.923757,4177
11.924755,3904
11.925756,3360
11.926756,3232
11.927757,4689
11.928757,4593
11.929756,3152
11.930755,3440
11.931756,2880
11.932756,3120
11.933758,4048
11.934758,3392
11.935755,4561
11.936757,2960
11.937756,3216
11.938757,2800
11.939779,3664
11.940759,4129
11.941756,3232
11.942757,4257
11.943757,3808
11.944755,3744
11.945755,3392
11.946757,3328
11.947757,3216
11.948758,3472
11.949758,3392
11.950756,3152
11.951756,3424
11.952756,3472
11.953757,3040
11.954757,2880
11.955755,3424
11.956757,3360
11.957758,5905
11.958756,3488
11.959758,3088
11.960756,3712
11.961757,3504
11.962756,3728
11.963755,3088
11.964758,3472
11.965758,3104
11.966758,3328
11.967757,7105
11.968756,3904
11.969756,3152
11.970756,4080
11.971756,4241
11.972756,3216
11.973756,4993
11.974757,3648
11.975755,3040
11.976757,3344
11.977757,3248
11.978756,3616
11.979755,3792
11.980755,3136
11.981756,4113
11.982755,3280
11.983756,2960
11.984757,4513
11.985756,4353
11.986757,10018
11.987755,3424
11.988756,3488
11.989754,3328
11.990758,3408
11.991754,3312
11.992755,3216
11.993756,2768
11.994757,3152
11.995757,3216
11.996755,3664
11.997758,3344
11.998757,2720
11.999754,3904
12.000757,3024
12.001756,3040
12.002755,4321
12.003771,4097
12.004757,3088
12.005755,5025
12.006757,3104
12.007756,2992
12.008757,3104
12.009755,3728
12.010757,4433
12.011757,3392
12.012756,3104
12.013756,3488
12.014756,3152
12.015758,3712
12.016756,3792
12.017756,2896
12.018758,3264
12.019757,3312
12.020756,4481
12.021756,3648
12.022756,3808
12.023756,2992
12.024756,3968
12.025756,4353
12.026759,4129
12.027756,2976
12.028758,3040
12.029753,4097
12.030755,3232
12.031754,3248
12.032755,3104
12.033758,3520
12.034758,2992
12.035755,3568
12.036756,3072
12.037756,3456
12.038757,3200
12.039755,4289
12.040756,2976
12.041755,3632
12.042755,3536
12.043757,3408
12.044756,3760
12.045755,5473
12.046756,3136
12.047756,3136
12.048754,3248
12.049756,3856
12.050758,4561
12.051756,3456
12.052756,3104
12.053756,3104
12.054757,3088
12.055756,3216
12.056756,3328
12.057755,3520
12.058756,3968
12.059758,4353
12.060755,3856
12.061758,4305
12.062756,4945
12.063756,3968
12.064757,3216
12.065755,4064
12.066756,3408
12.067772,4064
12.227249,3600
12.228067,3136
12.228642,2880
12.229196,5089
12.229744,7137
12.230357,5361
12.230908,3968
12.231457,3232
12.232010,3584
12.232582,3904
12.233138,3328
12.233689,3328
12.234248,3680
12.234801,3376
12.235353,3392
12.235908,3136
12.236458,4881
12.237035,4032
12.237756,5329
12.238755,3504
12.239756,3824
12.240756,3424
12.241756,4177
12.242756,3408
12.243755,3120
12.244755,3872
12.245759,2992
12.246756,3408
12.247757,3680
12.248758,3520
12.249754,3280
12.250755,4016
12.251756,3552
12.252756,3296
12.253756,3776
12.254756,4449
12.255756,4385
12.256756,3856
12.257755,4225
12.258755,3136
12.259779,4032
12.260761,3104
12.261758,3760
12.262757,3728
12.263756,3104
12.264756,3296
12.265757,3888
12.266754,3280
12.267756,3616
12.268756,3968
12.269757,4385
12.270757,3920
12.271755,3312
12.272753,6897
12.273756,4305
12.274757,4673
12.275756,4753
12.276756,3472
12.277754,3472
12.278757,3920
12.279755,3264
12.280756,3472
12.281755,4721
12.282755,4929
12.283754,3712
12.284757,4753
12.285756,4593
12.286756,3136
12.287756,3376
12.288756,3488
12.289757,3424
12.290757,4369
12.291756,4080
12.292756,3392
12.293758,3808
12.294755,3664
12.295759,4321
12.296756,4897
12.297757,3232
12.298755,4513
12.299756,4929
12.300757,3728
12.301755,3776
12.302756,3520
12.303756,3488
12.304756,3840
12.305756,3072
12.306756,3344
12.307758,3296
12.308756,6017
12.309757,5409
12.310756,4032
12.311757,3600
12.312756,3408
12.313756,3504
12.314757,3392
12.315756,3712
12.316757,3584
12.317756,4129
12.318756,3536
12.319755,3744
12.320757,4737
12.321756,3584
12.322756,3408
12.323781,3616
12.324763,3600
12.325756,4305
12.326758,3744
12.327757,3536
12.328756,3296
12.329756,3504
12.330756,3392
12.331756,4865
12.332753,4385
12.333755,5345
12.334757,4401
12.335755,3168
12.336757,2848
12.337757,4000
12.338756,3984
12.339755,3376
12.340757,3392
12.341758,4417
12.342758,3888
12.343755,4064
12.344757,4625
12.345756,4753
12.346756,3264
12.347755,4064
12.348757,2960
12.349756,4321
12.350757,3456
12.351757,3296
12.352756,3536
12.353756,3552
12.354758,3072
12.355756,4225
12.356754,3936
12.357757,3424
12.358756,3968
12.359756,3760
12.360755,3552
12.361755,3504
12.362756,3984
12.363755,3664
12.364755,3424
12.365757,3920
12.366757,3824
12.367756,4529
12.368757,3712
12.369755,3584
12.370757,3344
12.371756,3984
12.372758,3456
12.373758,3936
12.374755,5825
12.375756,3488
12.376756,4977
12.377757,5649
12.378756,4625
12.379756,4609
12.380756,4657
12.381756,3632
12.382756,3360
12.383753,4913
12.384756,3728
12.385757,3328
12.386757,3392
12.387773,5857
12.388763,3456
12.389760,4321
12.390757,3744
12.391759,3312
12.392756,3760
12.393756,5073
12.394754,3824
12.395756,3504
12.396754,3488
12.397756,5857
12.398756,4289
12.399755,4705
12.400756,3552
12.401757,4080
12.402755,3584
12.403756,7153
12.404756,4080
12.405757,4273
12.406757,4673
12.407755,3712
12.408757,3408
12.409755,3504
12.410758,3664
12.411756,4048
12.412757,3360
12.413755,3600
12.414756,4048
12.415755,3456
12.416756,4849
12.417756,3248
12.418757,3760
12.536033,2800
12.536985,3536
12.537729,2992
12.538440,4048
12.539147,2944
12.539929,3872
12.540636,3664
12.541345,3520
12.542054,3200
12.542782,3664
12.543490,5089
12.544201,3392
12.544916,2944
12.545623,2624
12.546343,3456
12.547059,3392
12.547775,3856
12.548513,1792
12.549226,3520
12.549942,3280
12.550654,3632
12.551375,4353
12.552093,4016
12.552815,3888
12.553532,4673
12.554253,3584
12.554978,3552
12.555757,3856
12.556756,3712
12.557756,4048
12.558757,3584
12.559758,3872
12.560755,4353
12.561757,3360
12.562757,4048
12.563757,3728
12.564757,4641
12.565755,4161
12.566758,3680
12.567756,3248
12.568754,3376
12.569758,3360
12.570756,3344
12.571759,3408
12.572755,3584
12.573757,4577
12.574756,3648
12.575757,3344
12.576758,5393
12.577756,3392
12.578755,3536
12.579857,3472
12.580763,4113
12.581755,4321
12.582758,3376
12.583754,4032
12.584755,4113
12.585756,3760
12.586758,3840
12.587756,4016
12.588755,4705
12.589757,3456
12.590758,3536
12.591755,3664
12.592756,3600
12.593756,4433
12.594755,3488
12.595756,3984
12.596755,3856
12.597756,3536
12.598755,3840
12.599755,3616
12.600757,3152
12.601759,4193
12.602756,4945
12.603755,3664
12.604758,3376
12.605754,2848
12.606755,4289
12.607756,3296
12.608758,3472
12.609757,4048
12.610756,4641
12.611755,3584
12.612757,3696
12.613755,3984
12.614758,4273
12.615757,5793
12.616758,3904
12.617756,3872
12.618756,3728
12.619758,3760
12.620756,4321
12.621757,4193
12.622756,4161
12.623757,3168
12.624755,3520
12.625757,4113
12.626755,3744
12.627756,3840
12.628756,3968
12.629756,3872
12.630755,3584
12.631754,3712
12.632756,3360
12.633757,4337
12.634758,4080
12.635756,5281
12.636755,4561
12.637756,3136
12.638753,4000
12.639754,3616
12.640756,4785
12.641756,4417
12.642755,3696
12.643753,4481
12.644771,2864
12.645761,3376
12.646756,3344
12.647757,4241
12.648757,3552
12.649757,3776
12.650756,4048
12.651756,5361
12.652756,3664
12.653755,3792
12.654756,3680
12.655756,5537
12.656758,3904
12.657757,3344
12.658755,3536
12.659758,3744
12.660756,4016
12.661755,4673
12.662757,4064
12.663754,3712
12.664758,3792
12.665756,3792
12.666756,3376
12.667754,3584
12.668755,4561
12.669754,3136
12.670758,4113
12.671756,4849
12.672757,3744
12.673756,3792
12.674756,3888
12.675757,4209
12.676756,3488
12.677755,3632
12.678756,3600
12.679758,3344
12.680754,4145
12.681753,4561
12.682754,4433
12.683758,3968
12.684754,3920
12.685756,3664
12.686757,7265
12.687755,3392
12.688756,4673
12.689755,4225
12.690753,3408
12.691757,3168
12.702340,3744
12.702570,2976
12.702782,3264
12.702994,2992
12.703209,3264
12.703418,2832
12.703630,3536
12.703849,2640
12.704062,3408
12.704278,3584
12.704756,3600
12.705755,3696
12.706755,4048
12.707757,3808
12.708778,3584
12.709760,3856
12.710755,4881
12.711756,4625
12.712757,3392
12.713758,3680
12.714755,3744
12.715755,3648
12.716756,4577
12.717756,4497
12.718756,3744
12.719756,3472
12.720756,3232
12.721755,3968
12.722756,4945
12.723756,3904
12.724757,3504
12.725756,3536
12.726754,4881
12.727756,4561
12.728757,4897
12.729754,3808
12.945536,3808
12.946095,3312
12.946413,3488
12.946703,3376
12.947002,4945
12.947356,6241
12.947645,6577
12.947935,5521
12.948218,4497
12.948523,3984
12.948819,3088
12.949109,3552
12.949757,3712
12.950754,4321
12.951756,4016
12.952759,3456
12.953759,3632
12.954756,3472
12.955756,4433
12.956757,4193
12.957757,6081
12.958757,6353
12.959757,4769
12.960758,4048
12.961756,3728
12.962755,3760
12.963755,3232
12.964777,2944
12.965760,3424
12.966756,4016
12.967758,3600
12.968758,3408
12.969758,3152
12.970755,3056
12.971754,3840
12.972754,3008
12.973758,3392
12.974756,5297
12.975757,4064
12.976758,4129
12.977758,3760
12.978757,4064
12.979756,4961
12.980755,3904
12.981756,4321
12.982755,4080
12.983759,3296
12.984756,3392
12.985756,3920
12.986756,4080
12.987754,3712
12.988755,3216
12.989756,3040
12.990758,3856
12.991757,3728
12.992755,3520
12.993756,4529
12.994756,4385
12.995757,4048
12.996756,3824
12.997757,3760
12.998757,4801
12.999756,4497
13.000755,3840
13.001758,3328
13.002756,3232
13.003757,3824
13.004757,3600
13.005756,2848
13.006756,4225
13.007755,3776
13.008758,4609
13.009755,3376
13.010756,4097
13.011755,9538
13.012757,4785
13.013757,3536
13.014758,4225
13.015756,4913
13.016756,3616
13.017755,3088
13.018756,3808
13.019755,3504
13.020757,3296
13.021756,2720
13.022753,3552
13.023754,3488
13.024756,3424
13.025756,3968
13.026756,5713
13.027758,4241
13.028772,2944
13.029763,4113
13.030756,3712
13.031757,3072
13.032757,4225
13.033756,3488
13.034756,3360
13.035756,5009
13.036756,3840
13.037758,2624
13.038756,3856
13.039756,3376
13.040754,4449
13.041756,3728
13.042756,4064
13.043756,4577
13.044756,3984
13.045756,3728
13.046757,3296
13.047756,5265
13.048757,5489
13.049758,3600
13.050756,4097
13.051757,3152
13.052756,4241
13.053758,2976
13.054756,3632
13.055754,2944
13.056757,3488
13.057757,3584
13.058757,3920
13.059756,4048
13.060758,3792
13.061758,3984
13.062756,4097
13.063756,4545
13.064757,3472
13.065756,3744
13.066757,3808
13.067754,3008
13.068757,4257
13.069756,3488
13.070758,3728
13.071758,5089
13.072756,4080
13.073758,5601
13.074755,4753
13.075757,5217
13.076756,4337
13.077756,4064
13.078757,3840
13.079757,4321
13.080757,4865
13.081756,5489
13.082756,5185
13.083756,3680
13.084757,3520
13.085757,3200
13.086758,4145
13.087756,3616
13.088757,3488
13.089757,3488
13.090757,5137
13.091757,6865
13.092772,3520
13.093762,3504
13.094758,3280
13.095756,3392
13.096759,3680
13.097757,3616
13.098756,4000
13.099758,4961
13.100758,3824
13.101754,3552
13.102756,3664
13.103756,3312
13.104758,3536
13.105756,3904
13.106756,3104
13.107757,8706
13.108757,6705
13.109758,5329
13.110755,3584
13.111756,4064
13.112755,3872
13.113757,4048
13.114758,3728
13.115754,2704
13.116754,5473
13.117757,3104
13.118755,2976
13.119757,3952
13.120755,3472
13.121758,4000
13.122756,5537
13.123757,3520
13.124755,2752
13.125756,3520
13.126756,5409
13.127756,4817
13.128757,4161
13.129755,2992
13.130756,3408
13.131756,3360
13.132756,3072
13.133758,2816
13.134756,3760
13.135758,4097
13.136755,2816
13.296101,3712
13.296795,3616
13.297267,3648
13.297712,3584
13.298163,3488
13.298666,3472
13.299111,4257
13.299555,3888
13.299998,2864
13.300458,4000
13.300900,3392
13.301337,5009
13.301786,5249
13.302233,4481
13.302756,3504
13.303757,2912
13.304758,3632
13.305757,4177
13.306755,3520
13.307757,3216
13.308756,3712
13.309757,3312
13.310753,3344
13.311756,2864
13.312757,3072
13.313757,3744
13.314756,3552
13.315755,3664
13.316758,3808
13.317756,3424
13.318754,3808
13.319756,3888
13.320757,3056
13.321756,2368
13.322755,2944
13.323757,3776
13.324756,5137
13.325757,2912
13.326756,2784
13.327756,2720
13.328756,2944
13.329757,3632
13.330758,3168
13.331756,2912
13.332755,4273
13.333757,4401
13.334757,2528
13.335756,3168
13.336757,3392
13.337756,3504
13.338756,3280
13.339756,2832
13.340757,3904
13.341756,3728
13.342757,3216
13.343758,3760
13.344754,7169
13.345757,3088
13.346757,3504
13.347757,3984
13.348780,2496
13.349754,2848
13.350755,3216
13.351756,4369
13.352756,3216
13.353757,2896
13.354754,4753
13.355757,4497
13.356756,3072
13.357756,3008
13.358755,3328
13.359758,3264
13.360756,2528
13.361756,2960
13.362754,3936
13.363758,3392
13.364755,3888
13.365754,2704
13.366756,2752
13.367756,3200
13.368754,3088
13.369755,3024
13.370757,3728
13.371757,3536
13.372757,2768
13.373758,3104
13.374758,3264
13.375757,3344
13.376756,3936
13.377754,2784
13.378757,3056
13.379754,4513
13.380756,3920
13.381757,3248
13.382756,3312
13.383754,3088
13.384758,2864
13.385756,2768
13.386757,2768
13.387756,4273
13.388756,4929
13.389756,3664
13.390756,3088
13.391756,2576
13.392757,4353
13.393755,3024
13.394754,3104
13.395756,4289
13.396754,3520
13.397754,2864
13.398757,2800
13.399756,2768
13.400757,4000
13.401756,3248
13.402756,2752
13.403754,3840
13.404756,3968
13.405756,7841
13.406757,6289
13.407756,5649
13.408754,5505
13.409756,3600
13.410754,4529
13.411757,3904
13.412774,3216
13.413761,4145
13.414758,2976
13.415758,2704
13.416757,3216
13.417758,3088
13.418757,3408
13.419756,2528
13.420755,3456
13.421757,3088
13.422757,3024
13.423755,3872
13.424756,4241
13.425755,3136
13.426758,3232
13.427756,3776
13.428755,3728
13.429756,2848
13.430756,3744
13.431757,4161
13.432757,3280
13.433757,2784
13.434754,3600
13.435754,2800
13.436758,3984
13.437757,3168
13.438755,4145
13.439754,3552
13.440756,4705
13.441757,4321
13.442756,3968
13.443756,2656
13.444756,2784
13.445756,3472
13.446757,4401
13.447755,2992
13.448756,2608
13.449755,2752
13.450756,3600
13.451756,3008
13.452755,2480
13.453756,3072
13.454755,2400
13.455758,2624
13.456758,3744
13.457757,3424
13.458757,2864
13.459756,3168
13.460755,3280
13.461756,3200
13.462755,4449
13.463759,4817
13.464758,3040
13.465755,3120
13.466757,5393
13.467756,3120
13.468754,3888
13.469756,3168
13.470755,3824
13.471757,2752
13.472756,3200
13.473757,2880
13.474756,3760
13.475756,3680
13.476772,2944
13.477762,3248
13.478759,2864
13.479756,4449
13.480757,4161
13.481758,3088
13.482755,3072
13.483755,7921
13.484757,3472
13.485755,3408
13.486755,2800
13.487756,3456
13.637508,3520
13.638370,3872
13.638993,3760
13.639593,3792
13.640187,4145
13.640852,4113
13.641445,3504
13.642046,3392
13.642639,3792
13.643256,3728
13.643853,4657
13.644451,4177
13.645049,3344
13.645646,4225
13.646246,3408
13.646849,3056
13.647450,2752
13.648079,3360
13.648679,3776
13.649284,3536
13.649893,3440
13.650755,2944
13.651756,2960
13.652756,4193
13.653756,2832
13.654756,2896
13.655757,2992
13.656756,3744
13.657754,3408
13.658756,2720
13.659758,3296
13.660756,4321
13.661756,3776
13.662754,3392
13.663756,3216
13.664758,3264
13.665757,3088
13.666758,2512
13.667757,4097
13.668773,5697
13.669763,4225
13.670759,2976
13.671760,4641
13.672757,2704
13.673756,3008
13.674754,2992
13.675754,2496
13.676754,4785
13.677756,3280
13.678756,3248
13.679758,3744
13.680755,3152
13.681755,2880
13.682756,2912
13.683756,2816
13.684757,3920
13.685756,3904
13.686756,3456
13.687758,3552
13.688753,2720
13.689756,2768
13.690757,3024
13.691755,3008
13.692758,3520
13.693756,2960
13.694758,3040
13.695759,3488
13.696755,3504
13.697754,2624
13.698756,3536
13.699754,3536
13.700757,2576
13.701758,3808
13.702757,3664
13.703756,3856
13.704756,2784
13.705756,2864
13.706756,4673
13.707755,4801
13.708752,3488
13.709756,3280
13.710757,3008
13.711758,2800
13.712757,3328
13.713756,3584
13.714758,2528
13.715757,2912
13.716757,4641
13.717757,3520
13.718756,3008
13.719757,3104
13.720758,3008
13.721757,2384
13.722758,2512
13.723756,2736
13.724756,2976
13.725757,3728
13.726757,3040
13.727756,3040
13.728758,4481
13.729756,5953
13.730756,5777
13.731756,3616
13.732778,2944
13.733763,3968
13.734758,2736
13.735758,2864
13.736756,2896
13.737757,2736
13.738757,2960
13.739756,3296
13.740757,3568
13.741756,3104
13.742757,2912
13.743758,3008
13.744756,2720
13.745755,3520
13.746755,3600
13.747756,2976
13.748757,3968
13.749757,3520
13.750755,2736
13.751756,3232
13.752757,4193
13.753756,3216
13.754756,3136
13.755757,3120
13.756757,3552
13.757756,3424
13.758757,2848
13.759756,3200
13.760756,6337
13.761758,3504
13.762757,3472
13.763757,2896
13.764758,2976
13.765756,4241
13.766757,4193
13.767756,3936
13.768755,2736
13.769756,3296
13.770758,2720
13.771756,2848
13.772756,3024
13.773756,3168
13.774756,5841
13.775758,4337
13.776757,3104
13.777756,3392
13.778753,2912
13.779756,2944
13.780757,3152
13.781756,2784
13.782758,2944
13.783755,3328
13.784754,3456
13.785758,4881
13.786759,3232
13.787756,3568
13.788756,3664
13.789756,4225
13.790756,3040
13.791758,4801
13.792758,4385
13.793756,2720
13.794756,2720
13.795756,3120
13.796768,3488
13.797761,4064
13.798760,2768
13.799756,2464
13.800755,3088
13.801756,3344
13.802756,4225
13.803757,3232
13.804756,2752
13.805755,3504
13.806756,3136
13.807757,2320
13.808756,4321
13.809756,3536
13.810755,4945
13.811759,4177
13.812755,3840
13.813757,4401
13.814756,3232
13.815757,2960
13.816754,2896
13.817756,3648
13.818757,3408
13.819756,3536
13.820756,4785
13.821757,4513
13.822756,2704
13.823754,2976
13.824756,4321
13.825758,2464
13.826758,3120
13.827759,3424
13.828756,2784
13.945437,4417
13.946471,3968
13.947262,2528
13.948027,2480
13.948785,3744
13.949613,6193
13.950373,6129
13.951130,3856
13.951893,3680
13.952668,3600
13.953433,5857
13.954196,3488
13.954958,4353
13.955723,4673
13.956481,3072
13.957243,3504
13.958010,4449
13.958795,3984
13.959556,6225
13.960326,3744
13.961090,4273
13.961860,3808
13.962628,3552
13.963396,3392
13.964166,3808
13.964936,3440
13.965698,4177
13.966472,3184
13.967246,3136
13.968019,4064
13.968798,3744
13.969572,3968
13.970343,3664
13.971156,2848
13.971926,3264
13.972756,2768
13.973756,3296
13.974757,3728
13.975756,3120
13.976757,2768
13.977758,3008
13.978758,3808
13.979757,4897
13.980757,3408
13.981758,2704
13.982757,4145
13.983755,3008
13.984758,3344
13.985756,4513
13.986755,3168
13.987757,2848
13.988774,3888
13.989759,3424
13.990758,2896
13.991758,3360
13.992758,3360
13.993758,3280
13.994755,3120
13.995755,3664
13.996754,3120
13.997755,3776
13.998756,3648
13.999757,3104
14.000756,3072
14.001756,3248
14.012023,3344
14.012254,3152
14.012468,3808
14.012677,3536
14.012891,3712
14.013104,3104
14.013316,4145
14.013527,4817
14.013748,4321
14.013967,4032
14.014755,3616
14.015756,3216
14.016756,3040
14.017755,2976
14.018756,3328
14.019757,4080
14.020755,3456
14.021757,3040
14.022755,3072
14.023757,3552
14.024756,2880
14.025758,2704
14.026755,2560
14.027756,3312
14.028756,3584
14.029758,3552
14.030756,3392
14.031758,3296
14.032755,2816
14.033759,2848
14.034756,3344
14.035758,3104
14.036757,4609
14.037756,3840
14.038756,3424
14.039755,2960
14.040756,2720
14.041755,3216
14.042756,4369
14.043758,4000
14.044757,4865
14.045758,3872
14.046756,3616
14.047756,3072
14.048758,2864
14.049756,2912
14.050756,2496
14.051754,3072
14.052774,3376
14.053763,2832
14.054759,3360
14.055758,3888
14.056756,3088
14.057758,5665
