Tempo(s),EMG_Value
0.005026,5537
0.006508,5137
0.006902,4321
0.007875,5073
0.008870,5857
0.009869,5505
0.010869,5169
0.011869,4993
0.012867,4545
0.013870,4833
0.014869,4353
0.015869,4817
0.016868,4529
0.017869,4993
0.018868,5905
0.019870,5297
0.020869,4785
0.021868,5697
0.022869,5521
0.023868,5969
0.024872,4785
0.025869,5377
0.026869,5089
0.027870,4433
0.028869,4449
0.029868,5585
0.030868,5953
0.031869,4689
0.032871,5217
0.033869,5009
0.034869,5265
0.035870,4577
0.036869,5121
0.037871,4497
0.038871,4241
0.039871,4609
0.040868,5153
0.041890,5281
0.042873,4545
0.043871,4673
0.044869,5073
0.045869,4273
0.046870,5633
0.047866,6225
0.048869,4593
0.049870,4913
0.050868,4929
0.051867,4785
0.052867,4961
0.053868,5009
0.054868,4737
0.055869,5041
0.056867,4913
0.057867,5377
0.058870,6369
0.059867,4897
0.060870,4705
0.061867,5601
0.062868,5489
0.063867,5025
0.064869,4929
0.065870,4385
0.066871,4529
0.067868,5233
0.068869,5585
0.069868,4961
0.070871,4929
0.071867,4945
0.072868,4657
0.073870,5873
0.074869,4737
0.075868,4577
0.076869,4353
0.077869,5137
0.078871,4993
0.079869,4961
0.080870,6609
0.081871,5409
0.082869,4513
0.083869,5937
0.084871,5425
0.085869,5185
0.086870,4529
0.087867,4753
0.088867,5393
0.089869,4561
0.090868,5089
0.091867,5073
0.092869,5185
0.093870,5185
0.094869,5297
0.095869,4529
0.096872,6193
0.097869,5441
0.098870,4657
0.099869,5297
0.100869,5057
0.101869,5169
0.102869,5777
0.103871,4289
0.104871,4529
0.105889,4321
0.106875,5265
0.107872,5473
0.108867,4929
0.109869,4369
0.110871,4561
0.111870,4769
0.112869,4769
0.113867,5201
0.114869,5121
0.115868,4609
0.116870,4481
0.117869,5521
0.118869,5825
0.119870,5441
0.120870,5073
0.121870,4833
0.122868,4561
0.123869,4545
0.124869,6177
0.125869,5777
0.126869,5009
0.127869,4705
0.128870,4257
0.129868,4801
0.130870,4945
0.131869,4689
0.132869,4385
0.133869,4401
0.134869,5217
0.135868,5249
0.136871,4513
0.137870,4993
0.138869,4817
0.139869,5857
0.140872,4561
0.141869,4817
0.142871,3520
0.143871,4561
0.144869,5073
0.145871,5953
0.146871,5905
0.147870,5169
0.148869,4961
0.149870,4641
0.150869,5025
0.151869,5153
0.152869,5841
0.153870,5857
0.154867,5505
0.155869,4641
0.156869,5153
0.157869,4865
0.158869,4193
0.159869,4753
0.160868,5409
0.161868,5409
0.162869,5281
0.163870,4785
0.164870,4497
0.165869,4529
0.166870,4641
0.167871,5185
0.168869,5393
0.169891,4609
0.170875,4913
0.171870,4481
0.172871,4353
0.173871,5521
0.174869,5505
0.175869,4305
0.176870,4529
0.177869,4737
0.178867,5041
0.179868,6033
0.180869,5713
0.181870,5121
0.182869,4625
0.183867,4609
0.184870,4177
0.185872,5729
0.186868,4737
0.187871,5697
0.188870,6017
0.189871,5201
0.190871,5169
0.191869,4577
0.192868,4113
0.193870,5377
0.194869,6369
0.195867,5409
0.196869,5057
0.197870,5249
0.198868,4321
0.199868,5601
0.200869,5649
0.201869,4561
0.202871,4609
0.203870,6065
0.328253,5473
0.328892,4657
0.329300,5009
0.329680,5537
0.330067,5297
0.330500,4513
0.330875,4433
0.331249,4529
0.331624,4705
0.332027,4529
0.332397,4545
0.332768,4737
0.333150,4881
0.333869,6977
0.334870,5009
0.335871,5025
0.336870,5345
0.337871,4753
0.338869,5713
0.339869,5425
0.340869,5233
0.341870,5169
0.342870,4177
0.343870,4689
0.344869,4609
0.345869,4241
0.346868,5089
0.347870,4689
0.348867,5393
0.349870,5569
0.350868,4737
0.351867,5233
0.352868,5361
0.353869,4769
0.354869,5089
0.355871,4545
0.356869,4481
0.357869,4929
0.358869,5121
0.359871,4737
0.360870,4353
0.361888,4257
0.362872,5521
0.363868,6481
0.364869,5809
0.365870,4769
0.366868,4737
0.367871,4529
0.368869,5633
0.369870,4577
0.370871,5073
0.371869,4545
0.372869,4945
0.373868,5825
0.374869,5473
0.375870,4417
0.376867,5057
0.377868,5665
0.378869,4865
0.379870,5249
0.380871,4641
0.381868,5025
0.382870,5569
0.383868,5249
0.384869,4353
0.385870,5681
0.386870,5537
0.387869,5777
0.388868,5313
0.389869,4625
0.390869,4449
0.391871,4048
0.392871,6865
0.393869,6081
0.394866,5153
0.395867,4961
0.396869,4753
0.397869,4625
0.398868,4993
0.399869,5793
0.400869,4737
0.401867,5313
0.402870,5265
0.403871,4401
0.404869,4945
0.405869,6321
0.406869,5057
0.407869,4769
0.408868,4881
0.409869,4769
0.410870,5217
0.411869,5057
0.412872,4609
0.413869,6113
0.414869,6561
0.415868,5633
0.416871,5409
0.417868,5089
0.418869,4577
0.419869,4705
0.420869,5569
0.421870,5137
0.422871,5025
0.423869,4673
0.424871,4641
0.425884,5153
0.426871,4897
0.427871,5025
0.428870,5185
0.429868,5121
0.430868,4417
0.431869,4753
0.432870,5937
0.433870,4817
0.434869,5745
0.435870,4961
0.436867,5185
0.437871,4289
0.438870,5953
0.439871,5649
0.440869,4785
0.441869,4817
0.442871,5585
0.443870,5201
0.444869,4801
0.445869,4753
0.446869,5041
0.447870,4801
0.448870,5553
0.449871,5137
0.450868,5121
0.451870,5457
0.452870,5201
0.453870,5617
0.454869,5713
0.455869,4913
0.456871,4561
0.457870,4689
0.458869,5009
0.459869,5377
0.460870,5185
0.461869,7233
0.462869,5649
0.463869,5041
0.464870,4881
0.465871,4881
0.466870,4785
0.467869,5089
0.468868,5009
0.469868,4513
0.470870,6033
0.471869,5073
0.472868,4961
0.473869,5281
0.474869,5329
0.475870,5137
0.476869,5265
0.477870,4785
0.478870,4433
0.479871,5441
0.480869,5809
0.481869,5313
0.482867,4689
0.483870,4641
0.484869,5201
0.485870,6545
0.486867,5745
0.487868,5345
0.488867,5377
0.489886,4769
0.490874,4657
0.491872,4529
0.492870,4881
0.493870,5633
0.494870,5969
0.495869,5249
0.496870,5857
0.497869,5057
0.498868,5281
0.499872,5025
0.500870,5025
0.501869,4785
0.502869,5681
0.503868,4993
0.504867,5633
0.505869,4897
0.506869,4673
0.507870,5521
0.508867,5169
0.509870,4897
0.510869,5105
0.511870,4417
0.512867,5985
0.513870,5473
0.514871,4865
0.515868,5297
0.516868,5409
0.517869,4817
0.518871,4609
0.519868,4801
0.678385,6305
0.679170,5281
0.679716,5393
0.680257,4993
0.680782,5361
0.681378,5297
0.682071,5409
0.682605,4945
0.683137,5633
0.683682,4881
0.684216,6049
0.684741,6097
0.685278,5153
0.685811,4673
0.686340,4113
0.686872,5169
0.687404,4673
0.687966,5761
0.688869,5841
0.689869,5649
0.690869,5025
0.691869,5169
0.692870,4769
0.693871,5249
0.694870,6273
0.695869,5329
0.696871,4881
0.697869,5009
0.698869,5537
0.699871,5041
0.700869,5601
0.701869,5681
0.702869,4129
0.703869,5041
0.704869,5441
0.705870,6161
0.706870,5937
0.707870,5265
0.708871,4801
0.709869,5249
0.710871,5089
0.711867,4705
0.712870,6369
0.713870,5409
0.714870,4673
0.715867,5537
0.716871,5505
0.717870,5969
0.718869,5601
0.719869,4865
0.720870,5153
0.721870,5377
0.722870,5409
0.723869,5057
0.724869,5153
0.725870,5137
0.726869,5249
0.727870,5025
0.728867,6321
0.729869,4929
0.730867,5025
0.731871,5313
0.732869,6801
0.733871,5393
0.734868,4385
0.735869,5105
0.736870,4977
0.737869,5249
0.738869,5345
0.739869,5137
0.740868,5297
0.741869,5201
0.742869,6177
0.743870,6721
0.744888,4769
0.745871,4945
0.746871,5313
0.747870,5201
0.748870,5009
0.749870,4673
0.750868,4289
0.751870,6353
0.752868,6913
0.753870,4785
0.754867,4769
0.755868,5953
0.756870,5137
0.757869,4929
0.758868,5969
0.759869,5313
0.760868,5153
0.761868,5153
0.762870,6161
0.763870,5153
0.764869,5441
0.765869,5889
0.766869,5329
0.767870,4929
0.768869,5425
0.769869,5057
0.770869,5089
0.771870,4753
0.772869,4865
0.773869,5105
0.774870,6449
0.775869,5633
0.776869,5585
0.777869,6241
0.778869,5521
0.779868,5089
0.780870,5185
0.781870,6881
0.782867,5121
0.783868,5377
0.784869,5217
0.785869,5025
0.786871,5089
0.787868,5537
0.788869,5265
0.789870,4849
0.790868,4977
0.791869,5137
0.792869,5537
0.793870,5345
0.794870,5041
0.795870,5281
0.796869,5281
0.797868,6049
0.798869,7041
0.799868,5009
0.800870,4881
0.801868,5425
0.802869,7009
0.803869,5713
0.804871,5041
0.805868,5105
0.806870,4865
0.807869,5697
0.808892,4961
0.809877,4737
0.810872,4913
0.811873,5121
0.812871,5137
0.813869,5281
0.814868,4833
0.815869,5457
0.816869,5153
0.817870,5201
0.818869,6689
0.819869,5009
0.820869,4897
0.821870,5025
0.822869,5585
0.823870,5249
0.824867,5617
0.825869,5057
0.826869,5617
0.827868,5809
0.828870,5233
0.829869,5313
0.830872,5313
0.831869,5201
0.832869,4993
0.833868,5921
0.834870,5297
0.835869,4897
0.836868,5857
0.837869,6225
0.838870,5265
0.839868,5521
0.840869,6577
0.841870,5409
0.842870,4897
0.843867,5681
0.844869,4993
0.845868,5617
0.846868,4945
0.847871,5025
0.848869,5649
0.849869,5377
0.850870,5297
0.851870,5569
0.852869,4993
0.853868,4977
0.854869,5985
0.855869,5633
0.856870,5521
0.857869,5585
0.858870,5217
0.859870,4881
0.860869,6881
0.861869,5633
0.862870,5121
0.863869,7473
0.864869,6305
0.865870,5409
0.866872,5057
0.867869,5073
0.868871,5489
0.869869,5457
1.020687,5409
1.021634,5457
1.022349,6961
1.023034,5633
1.023712,4385
1.024463,5313
1.025141,5409
1.025820,5665
1.026505,4785
1.027206,5089
1.027891,5377
1.028572,5281
1.029258,4961
1.029942,5697
1.030625,4897
1.031314,4865
1.032000,5281
1.032706,5361
1.033392,5537
1.034081,4481
1.034765,5137
1.035459,4865
1.036147,5377
1.036834,5553
1.037522,5329
1.038216,5393
1.038915,5793
1.039870,5457
1.040870,5057
1.041869,5329
1.042871,5153
1.043869,7345
1.044868,6625
1.045869,5825
1.046868,5089
1.047870,5217
1.048871,5361
1.049871,5265
1.050869,6017
1.051869,5553
1.052869,6145
1.053870,6801
1.054867,5009
1.055868,5169
1.056869,5297
1.057868,6113
1.058871,6081
1.059872,5297
1.060866,5313
1.061871,5457
1.062870,6305
1.063869,5345
1.064871,5009
1.065891,5249
1.066877,5633
1.067873,4945
1.068871,5025
1.069868,5201
1.070871,4609
1.071871,5185
1.072871,5089
1.073868,6689
1.074870,6977
1.075868,4881
1.076870,5537
1.077867,6177
1.078870,5921
1.079870,5649
1.080870,5761
1.081869,5457
1.082870,5457
1.083868,5009
1.084869,5681
1.085870,5681
1.086869,4833
1.087869,5089
1.088869,5249
1.089868,6097
1.090870,5377
1.091871,5281
1.092869,5425
1.093869,5393
1.094869,5665
1.095869,5009
1.096870,5921
1.097869,6177
1.098869,6673
1.099869,6081
1.100869,5105
1.101870,5553
1.102869,3904
1.103869,6369
1.104868,6353
1.105868,5937
1.106871,4817
1.107870,5041
1.108870,5217
1.109867,5473
1.110868,5361
1.111871,5553
1.112868,5793
1.113871,5729
1.114869,5809
1.115869,5249
1.116867,6097
1.117869,5057
1.118870,4801
1.119869,5841
1.120868,5441
1.121869,4737
1.122870,4785
1.123867,6353
1.124869,5633
1.125868,6913
1.126868,5377
1.127871,5041
1.128886,3936
1.129872,6849
1.130867,6433
1.131870,5281
1.132869,5681
1.133871,5585
1.134869,5217
1.135869,5937
1.136869,4993
1.137868,5585
1.138871,5201
1.139871,4945
1.140870,5761
1.141870,5329
1.142869,4449
1.143869,5137
1.144868,5521
1.145869,6785
1.146869,5905
1.147868,5825
1.148869,4961
1.149870,5473
1.150868,5441
1.151867,5457
1.152870,5713
1.153869,5825
1.154868,5329
1.155867,6177
1.156867,5985
1.157868,5697
1.158871,5057
1.159868,5569
1.160869,5953
1.161870,5297
1.162869,5889
1.163869,5649
1.164869,5457
1.165870,5633
1.166870,4769
1.167870,5505
1.168870,6321
1.169869,6337
1.170869,5601
1.171869,5457
1.172868,5377
1.173869,5729
1.174868,6017
1.175869,5521
1.176869,5585
1.177869,5665
1.178870,6433
1.179869,6065
1.180869,5409
1.181869,4993
1.182871,4705
1.183869,5537
1.184869,6433
1.185869,6529
1.186867,5441
1.187867,5729
1.188869,5441
1.189869,5361
1.190867,6193
1.191869,5345
1.192888,4385
1.193878,4929
1.194870,5649
1.195871,5905
1.196869,6273
1.197871,5729
1.198869,4913
1.199870,5953
1.200869,6545
1.201868,5249
1.202870,5233
1.203869,5473
1.204868,6225
1.205868,5649
1.206869,5137
1.207870,5345
1.208867,8177
1.209869,6241
1.210870,4945
1.211869,5249
1.329123,4913
1.329592,5281
1.329864,5553
1.330106,5409
1.330344,5905
1.330598,5425
1.330840,4273
1.331078,4353
1.331315,4177
1.331569,5057
1.331869,5393
1.332868,7041
1.333869,5553
1.334870,5985
1.335868,5825
1.336870,5985
1.337869,5521
1.338869,5281
1.339869,5249
1.340871,6337
1.341868,5825
1.342870,4769
1.343867,5329
1.344869,4913
1.345869,5601
1.346871,5857
1.347869,5057
1.348871,6049
1.349870,5825
1.350869,5201
1.351869,5217
1.352869,5793
1.353870,6241
1.354869,5521
1.355869,5265
1.356869,5969
1.357869,5761
1.358871,4785
1.359870,4641
1.360869,5617
1.361869,5793
1.362869,5713
1.363870,5217
1.364869,5009
1.365868,5393
1.366869,5921
1.367868,6049
1.368869,5873
1.369871,6225
1.370869,5537
1.371870,5265
1.372870,6177
1.373869,5809
1.374869,4481
1.375870,6049
1.376869,6065
1.377869,6241
1.378867,4737
1.379869,5617
1.380869,6449
1.381871,5953
1.382867,4433
1.383871,5409
1.384991,5265
1.385891,4929
1.386877,5169
1.387869,5825
1.388871,5217
1.389869,5057
1.390868,3984
1.391870,5073
1.392869,5761
1.393870,6577
1.394868,5969
1.395870,5041
1.396869,5681
1.397869,6177
1.398869,5505
1.399869,5377
1.400869,4993
1.401870,5409
1.402867,4385
1.403869,5649
1.404868,4753
1.405870,5425
1.406869,5857
1.407868,5025
1.408870,5041
1.409867,4241
1.410869,6593
1.411870,5569
1.412869,5681
1.413867,5281
1.414870,5937
1.415869,5377
1.416871,5153
1.417870,5697
1.418869,5281
1.419870,5457
1.420867,4385
1.421871,5857
1.422868,4737
1.423869,5009
1.424867,4113
1.425870,4929
1.426869,5761
1.427871,7233
1.428870,6785
1.429868,4865
1.430870,5169
1.431869,5841
1.432868,5009
1.433870,5265
1.434869,5793
1.435867,4817
1.436869,5329
1.437869,5553
1.438871,6065
1.439869,5841
1.440869,5553
1.441870,5313
1.442870,5009
1.443868,4641
1.444869,4881
1.445867,5681
1.446867,4449
1.447871,5889
1.448869,5777
1.449885,4337
1.450877,4753
1.451871,5969
1.452867,4529
1.453868,5969
1.454869,6337
1.455870,5969
1.456868,4353
1.457868,4481
1.458869,5777
1.459872,6673
1.460870,5505
1.461869,5281
1.462871,5137
1.463870,5729
1.464869,5825
1.465868,5345
1.466868,3664
1.467867,4417
1.468869,6017
1.469869,6017
1.470870,5089
1.471871,6769
1.472870,5825
1.473867,3872
1.474869,5761
1.475869,4801
1.476869,6449
1.477869,5601
1.478872,4961
1.479869,4561
1.480867,5617
1.481871,5809
1.482869,5809
1.483871,5409
1.484869,5569
1.485867,4209
1.486869,4545
1.487868,5633
1.488869,5521
1.489868,4689
1.490870,5441
1.491869,5137
1.492870,6785
1.493869,5441
1.494869,4241
1.495869,6001
1.496869,5825
1.497867,4305
1.498867,4641
1.499870,4977
1.500869,4353
1.501870,5873
1.502867,5905
1.503869,6177
1.504870,5457
1.505871,5121
1.506870,6609
1.507871,6497
1.508869,5473
1.509868,5217
1.510868,4385
1.511870,5313
1.512869,5633
1.513885,4961
1.514875,6929
1.515873,5681
1.516871,4833
1.517870,4961
1.518867,5537
1.519869,6241
1.520869,5601
1.724006,6193
1.724641,5297
1.725065,5313
1.725458,5329
1.725854,4945
1.726309,4961
1.726699,4305
1.727095,4289
1.727486,4657
1.727902,4897
1.728293,4641
1.728688,4641
1.729085,4881
1.729481,5217
1.729874,5969
1.730870,4497
1.731868,4113
1.732868,4673
1.733869,4545
1.734870,5425
1.735869,5057
1.736871,4913
1.737870,4513
1.738868,5137
1.739869,5153
1.740869,4817
1.741869,4497
1.742871,4737
1.743869,4097
1.744871,4625
1.745867,5713
1.746871,5025
1.747869,5569
1.748869,4737
1.749871,4337
1.750869,4705
1.751869,5505
1.752870,5057
1.753869,4257
1.754869,4016
1.755869,4417
1.756869,5537
1.757869,6033
1.758869,4289
1.759868,4305
1.760868,5777
1.761870,4129
1.762870,4497
1.763869,6049
1.764869,4513
1.765870,5009
1.766870,4753
1.767869,4753
1.768870,4801
1.769893,5281
1.770875,5329
1.771868,4897
1.772870,4161
1.773868,5265
1.774869,5553
1.775869,5009
1.776869,4945
1.777869,4000
1.778869,3728
1.779868,4353
1.780871,7457
1.781867,4913
1.782870,4161
1.783868,4945
1.784867,4513
1.785869,5505
1.786868,5265
1.787868,6033
1.788870,4881
1.789869,4353
1.790868,4417
1.791869,5665
1.792869,4305
1.793870,4225
1.794870,6257
1.795869,5441
1.796870,5137
1.797869,4305
1.798871,4129
1.799869,4609
1.800869,6065
1.801870,5537
1.802869,5169
1.803870,4993
1.804869,4737
1.805869,4433
1.806869,4737
1.807869,4257
1.808870,4657
1.809871,4673
1.810871,4305
1.811868,4289
1.812869,5201
1.813867,4385
1.814870,5681
1.815868,4865
1.816871,4753
1.817870,5505
1.818869,4561
1.819869,4129
1.820869,6465
1.821870,5041
1.822869,4753
1.823868,4673
1.824870,4129
1.825870,3856
1.826868,4785
1.827870,5313
1.828870,4193
1.829869,5281
1.830867,4545
1.831869,5329
1.832871,4689
1.833888,4497
1.834876,5809
1.835871,5521
1.836868,5169
1.837872,5313
1.838870,4929
1.839870,5793
1.840869,5521
1.841869,4929
1.842870,4545
1.843869,5057
1.844870,4016
1.845867,5185
1.846869,4433
1.847868,4241
1.848870,4833
1.849871,5841
1.850867,6289
1.851869,4481
1.852871,4497
1.853867,4129
1.854867,4993
1.855871,4977
1.856870,5649
1.857871,4657
1.858871,4529
1.859869,4593
1.860870,7233
1.861869,5633
1.862869,4545
1.863870,4449
1.864868,4833
1.865868,4241
1.866871,4321
1.867869,4064
1.868869,4897
1.869871,5537
1.870869,5105
1.871869,4753
1.872871,5105
1.873870,5457
1.874868,4289
1.875869,4689
1.876869,5057
1.877871,4289
1.878869,3840
1.879869,4225
1.880871,4609
1.881871,5313
1.882870,6145
1.883870,5057
1.884869,4993
1.885869,4625
1.886871,4225
1.887871,3984
1.888871,4289
1.889870,5249
1.890869,5265
1.891869,4705
1.892869,3968
1.893870,5713
1.894871,5729
1.895867,4545
1.896870,5201
1.897885,4849
1.898877,5281
1.899872,6113
1.900870,5057
1.901871,5393
1.902870,4993
1.903871,4080
1.904870,4833
1.905869,4321
1.906869,5457
1.907869,4945
1.908871,5617
1.909869,4497
1.910867,5601
1.911869,4673
1.912868,5153
1.913869,4689
1.914870,5441
2.070703,4449
2.071529,6177
2.072109,6209
2.072658,5217
2.073208,5185
2.073818,5137
2.074370,4993
2.074921,3680
2.075463,5073
2.076025,5377
2.076569,7361
2.077120,7489
2.077661,6033
2.078212,5713
2.078758,5281
2.079308,5265
2.079860,5313
2.080431,5905
2.080981,6097
2.081869,4417
2.082867,4657
2.083870,4737
2.084870,5521
2.085870,4625
2.086871,4561
2.087870,5105
2.088870,4705
2.089887,5137
2.090879,6017
2.091872,4609
2.092869,4865
2.093869,5249
2.094869,4897
2.095869,4657
2.096870,4705
2.097869,4369
2.098869,5185
2.099868,4961
2.100870,4641
2.101867,5121
2.102869,4353
2.103868,4625
2.104867,4193
2.105869,4785
2.106868,4929
2.107869,4993
2.108869,5249
2.109869,6353
2.110867,5329
2.111869,4801
2.112869,4721
2.113869,4737
2.114869,5537
2.115869,4913
2.116868,3904
2.117869,5313
2.118868,6193
2.119869,5921
2.120869,4225
2.121870,4385
2.122867,4385
2.123869,4385
2.124869,4513
2.125869,5153
2.126868,5553
2.127871,4305
2.128868,4481
2.129870,5457
2.130870,5841
2.131869,6337
2.132871,4833
2.133869,4241
2.134870,4241
2.135867,4881
2.136870,4545
2.137868,5153
2.138868,5041
2.139869,5649
2.140869,3968
2.141869,4257
2.142871,4993
2.143869,6465
2.144869,5329
2.145869,5729
2.146869,4769
2.147871,4032
2.148869,4785
2.149870,5041
2.150869,5249
2.151867,5009
2.152869,4241
2.153882,4641
2.154872,5649
2.155870,4833
2.156869,5729
2.157867,5009
2.158868,4689
2.159871,4689
2.160869,4961
2.161869,4641
2.162870,4769
2.163867,4193
2.164868,4897
2.165869,4481
2.166868,4369
2.167870,4401
2.168871,4769
2.169869,6737
2.170868,5201
2.171869,4609
2.172869,5169
2.173871,4577
2.174870,4497
2.175868,4881
2.176869,4801
2.177869,4497
2.178869,4497
2.179871,5281
2.180870,4881
2.181868,5441
2.182867,5089
2.183870,4449
2.184867,4817
2.185868,4769
2.186869,3856
2.187871,4657
2.188871,5553
2.189869,5297
2.190869,5009
2.191870,4561
2.192869,4385
2.193870,4881
2.194869,4801
2.195870,4641
2.196871,4817
2.197869,4673
2.198869,5697
2.199871,4977
2.200871,4417
2.201870,4417
2.202871,4016
2.203870,4913
2.204870,4545
2.205869,5905
2.206869,6785
2.207869,5441
2.208870,4881
2.209869,5169
2.210870,5281
2.211869,4961
2.212871,3968
2.213870,4465
2.214871,4193
2.215869,4641
2.216869,5521
2.217883,5185
2.218874,4689
2.219871,4785
2.220869,4433
2.221869,5857
2.222867,4753
2.223868,4897
2.224871,4945
2.225868,4497
2.226871,4257
2.227869,5089
2.228871,6209
2.229870,5793
2.230869,4561
2.231869,4417
2.232870,4449
2.233870,4609
2.234869,4481
2.235870,4673
2.236870,4817
2.237871,4913
2.238869,5073
2.239868,4913
2.240869,4433
2.241869,5617
2.242871,5793
2.243869,5057
2.244867,4417
2.245870,5089
2.246869,5697
2.247869,5521
2.248871,4897
2.249871,4881
2.250869,4513
2.251869,4353
2.252868,4353
2.253868,5345
2.254871,5569
2.255871,4673
2.256870,4657
2.257871,4737
2.258870,4625
2.259868,4865
2.260869,5265
2.261868,4385
2.370555,4929
2.371519,4769
2.372269,4865
2.372983,6337
2.373684,5249
2.374462,4801
2.375164,4321
2.375874,4401
2.376577,4993
2.377304,5409
2.378010,5761
2.378714,4769
2.379423,4529
2.380134,6593
2.380843,6177
2.381553,5393
2.382266,5601
2.383000,4673
2.383709,5473
2.384428,6065
2.385143,5505
2.385862,5025
2.386575,4193
2.387296,4609
2.388012,4897
2.388723,4913
2.389443,6193
2.390163,5905
2.390882,5265
2.391870,4385
2.392869,5217
2.393869,5889
2.394871,4353
2.395869,4545
2.396871,4481
2.397868,4993
2.398869,5601
2.399867,4945
2.400871,5249
2.401869,4961
2.402869,4273
2.403869,4305
2.404869,5905
2.405870,4945
2.406870,4577
2.407869,4129
2.408868,5137
2.409892,6081
2.410873,5649
2.411870,5009
2.412869,4433
2.413870,4369
2.414868,5169
2.415869,5329
2.416868,4705
2.417869,5057
2.418869,4225
2.419869,4321
2.420870,5105
2.421870,4737
2.422870,5073
2.423871,5041
2.424868,5057
2.425867,5201
2.426869,4641
2.427871,4993
2.428868,4769
2.429869,5537
2.430869,5313
2.431868,4865
2.432869,4113
2.433869,5297
2.434869,4929
2.435870,4145
2.436870,4385
2.437869,5297
2.438869,4561
2.439871,4529
2.440869,5649
2.441870,4689
2.442871,6145
2.443869,5553
2.444868,4833
2.445869,4545
2.446869,4817
2.447871,5633
2.448867,5009
2.449871,4609
2.450870,4385
2.451870,4449
2.452870,4737
2.453869,5009
2.454870,4449
2.455871,6097
2.456869,5921
2.457869,4369
2.458870,5025
2.459868,4993
2.460871,5793
2.461870,4449
2.462868,4561
2.463869,4657
2.464868,5137
2.465870,4577
2.466869,4273
2.467869,5169
2.468870,4577
2.469867,4561
2.470871,4625
2.471871,4705
2.472871,4753
2.473885,5409
2.474872,4801
2.475869,5777
2.476868,6401
2.477869,4289
2.478869,5137
2.479869,4609
2.480871,4513
2.481868,4945
2.482871,5729
2.483870,5297
2.484868,4545
2.485871,5537
2.486870,5217
2.487869,4737
2.488869,4881
2.489869,4545
2.490869,4273
2.491871,4497
2.492869,5153
2.493871,5009
2.494869,5121
2.495869,4481
2.496869,7121
2.497869,5153
2.498870,6321
2.499869,5521
2.500869,4817
2.501869,4449
2.502870,4241
2.503869,5057
2.504868,4945
2.505868,5073
2.506866,4705
2.507868,4529
2.508868,4993
2.509869,4609
2.510870,4993
2.511869,4673
2.512869,6017
2.513870,4545
2.514869,4801
2.515871,6145
2.516868,4433
2.517869,4625
2.518870,5617
2.529439,4465
2.529666,4593
2.529880,5041
2.530089,5057
2.530294,5153
2.530501,5329
2.530710,6305
2.530929,6449
2.531144,6097
2.531357,6465
2.531870,5121
2.532869,4785
2.533868,5057
2.534869,5057
2.535870,5057
2.536870,4433
2.537881,5201
2.538876,4641
2.539871,5825
2.540871,5041
2.541867,4577
2.542869,5457
2.543869,5201
2.544868,4321
2.545869,4353
2.546868,4929
2.547868,5297
2.548869,5217
2.549868,4497
2.550870,4833
2.551870,5185
2.552871,4897
2.553869,4769
2.554870,4481
2.555872,4753
2.556870,4545
2.557869,4721
2.558869,4945
2.559869,4769
2.560869,5025
2.561869,5121
2.562869,5281
2.563869,4497
2.720582,5217
2.721149,4673
2.721462,5105
2.721753,4993
2.722044,5905
2.722394,5857
2.722674,5905
2.722965,6561
2.723246,5441
2.723556,5265
2.723843,5201
2.724135,5393
2.724869,4737
2.725871,4689
2.726870,4961
2.727867,4737
2.728871,4513
2.729888,5409
2.730872,5585
2.731869,4961
2.732867,5153
2.733870,4961
2.734869,5617
2.735869,5041
2.736868,4785
2.737869,4993
2.738869,4577
2.739868,4657
2.740869,5441
2.741868,5153
2.742870,4577
2.743869,4545
2.744869,5809
2.745869,5809
2.746871,4769
2.747870,4657
2.748871,4881
2.749869,4641
2.750868,5793
2.751868,5761
2.752869,5153
2.753867,4897
2.754870,5345
2.755869,5009
2.756871,5265
2.757869,4801
2.758869,4801
2.759868,5153
2.760869,4833
2.761868,5041
2.762870,5169
2.763870,5553
2.764868,4561
2.765867,4577
2.766869,5569
2.767869,5185
2.768869,5585
2.769870,4577
2.770869,4289
2.771868,4913
2.772871,4561
2.773870,5265
2.774870,6097
2.775869,6161
2.776870,4577
2.777869,4897
2.778872,5665
2.779869,5889
2.780871,5857
2.781869,4401
2.782871,4641
2.783867,4673
2.784870,4689
2.785870,4433
2.786870,4737
2.787869,4993
2.788869,4961
2.789869,4577
2.790869,5377
2.791869,5313
2.792868,4705
2.793894,5121
2.794877,4481
2.795872,4449
2.796870,4961
2.797869,5697
2.798868,5649
2.799870,4497
2.800868,4817
2.801869,5601
2.802871,4161
2.803868,5409
2.804869,4881
2.805869,4817
2.806869,5009
2.807868,5345
2.808870,4609
2.809871,4817
2.810870,4817
2.811868,4561
2.812869,4545
2.813869,5217
2.814870,6193
2.815870,5601
2.816869,4801
2.817869,5169
2.818869,5281
2.819870,4801
2.820867,4529
2.821869,4625
2.822871,4593
2.823871,4657
2.824870,4721
2.825870,5793
2.826870,5377
2.827870,4753
2.828869,4961
2.829869,4545
2.830869,6353
2.831869,6705
2.832871,4769
2.833870,4401
2.834870,4833
2.835869,4753
2.836870,4769
2.837869,5265
2.838869,4817
2.839871,4961
2.840869,5473
2.841869,4897
2.842869,5345
2.843870,5345
2.844867,5649
2.845870,5553
2.846870,5473
2.847869,4417
2.848869,5137
2.849870,4641
2.850866,5169
2.851869,5857
2.852869,5297
2.853869,4673
2.854869,4625
2.855869,4849
2.856871,5697
2.857888,6529
2.858874,5361
2.859868,5569
2.860869,4897
2.861871,4881
2.862870,5969
2.863869,5009
2.864870,5153
2.865869,4865
2.866871,5089
2.867869,4833
2.868868,5169
2.869867,4865
2.870869,4673
2.871869,4705
2.872869,4945
2.873870,5441
2.874870,4433
2.875868,5393
2.876869,5953
2.877870,5281
2.878870,5041
2.879869,4577
2.880869,4577
2.881869,6113
2.882871,5121
2.883869,4545
2.884869,4401
2.885870,5777
2.886871,5121
2.887869,4545
2.888871,4929
2.889870,4513
2.890868,5089
2.891867,5569
2.892868,5953
2.893870,6241
2.894870,5537
2.895870,5249
2.896871,4785
2.897868,4945
2.898868,5553
2.899870,5425
2.900868,5425
2.901869,4705
2.902869,5361
2.903868,5265
2.904869,4897
2.905870,5617
2.906867,4881
2.907869,4545
2.908868,4305
2.909870,4497
2.910871,6161
2.911869,5249
3.065113,6673
3.065794,6049
3.066272,4705
3.066720,4881
3.067166,5025
3.067672,4641
3.068111,6033
3.068548,5697
3.068990,6401
3.069444,5105
3.069888,5345
3.070331,4353
3.070772,4817
3.071222,4977
3.071870,4865
3.072869,5169
3.073869,5297
3.074869,4433
3.075869,6033
3.076869,6113
3.077870,5441
3.078871,4689
3.079867,5249
3.080869,5089
3.081868,5361
3.082869,4689
3.083867,5057
3.084869,5297
3.085871,4465
3.086869,6321
3.087870,5889
3.088869,5185
3.089869,4833
3.090870,4449
3.091869,4817
3.092868,5569
3.093870,4625
3.094869,6465
3.095868,5297
3.096868,5265
3.097868,5073
3.098869,5041
3.099869,5313
3.100869,4977
3.101870,4769
3.102870,5569
3.103868,4865
3.104868,6177
3.105869,5601
3.106870,5265
3.107869,5169
3.108869,4913
3.109867,5473
3.110870,4785
3.111869,5185
3.112871,5425
3.113888,5281
3.114871,4577
3.115872,4625
3.116871,6225
3.117871,5441
3.118869,6241
3.119868,5441
3.120867,5073
3.121872,5169
3.122871,5073
3.123869,5345
3.124870,4801
3.125868,5841
3.126868,6481
3.127868,5361
3.128870,4561
3.129867,4881
3.130872,5281
3.131869,4609
3.132866,6193
3.133869,5585
3.134869,5457
3.135870,4913
3.136868,5281
3.137870,5377
3.138868,5697
3.139870,4481
3.140869,4817
3.141870,4625
3.142871,4945
3.143867,7345
3.144871,5313
3.145867,5665
3.146868,5809
3.147869,5873
3.148871,5409
3.149869,4769
3.150869,5697
3.151871,5473
3.152870,5009
3.153870,4785
3.154869,4897
3.155869,5121
3.156867,5665
3.157869,5249
3.158868,5217
3.159871,4833
3.160871,4945
3.161869,5265
3.162869,5281
3.163870,4561
3.164871,5297
3.165869,7233
3.166870,5793
3.167870,5265
3.168869,5249
3.169868,5617
3.170868,5009
3.171871,5041
3.172867,5569
3.173869,5393
3.174870,4753
3.175871,4897
3.176869,4865
3.177887,6337
3.178875,4785
3.179871,5089
3.180868,5169
3.181869,4545
3.182868,5345
3.183871,5265
3.184869,5345
3.185871,6081
3.186869,5537
3.187869,5953
3.188871,4897
3.189869,4785
3.190867,5985
3.191869,4849
3.192870,4913
3.193869,5793
3.194869,5441
3.195870,5441
3.196869,5249
3.197871,5025
3.198871,5889
3.199871,5329
3.200869,4753
3.201869,4929
3.202869,4929
3.203867,5521
3.204870,6449
3.205871,5537
3.206869,5377
3.207870,5761
3.208869,5137
3.209870,5201
3.210870,5089
3.211868,5825
3.212871,5617
3.213868,4785
3.214869,5249
3.215869,5617
3.216869,6273
3.217867,5649
3.218869,5441
3.219870,4801
3.220870,5153
3.221868,6561
3.222871,5009
3.223868,4929
3.224869,5809
3.225871,5329
3.226869,5649
3.227870,5089
3.228868,5297
3.229868,5713
3.230870,5089
3.231867,5345
3.232868,4865
3.233870,5137
3.234868,6529
3.235869,5601
3.236867,5121
3.237868,5057
3.238870,4897
3.239869,5681
3.240870,5473
3.241882,4689
3.242872,5537
3.243870,5329
3.244868,5025
3.245872,6241
3.246868,6305
3.247871,5793
3.248869,5057
3.249870,5169
3.250871,5057
3.251869,4721
3.252870,4769
3.253869,6465
3.254869,6273
3.255870,5201
3.256869,4833
3.371101,4705
3.371957,4993
3.372577,4657
3.373174,4913
3.373762,4657
3.374421,6113
3.375015,5889
3.375607,4449
3.376203,4545
3.376814,5153
3.377414,5457
3.378011,6817
3.378602,6193
3.379203,5361
3.379797,4993
3.380394,5377
3.380992,5857
3.381611,5073
3.382213,5601
3.382870,5073
3.383870,5601
3.384869,5697
3.385871,5105
3.386869,5169
3.387871,7169
3.388871,6049
3.389871,5441
3.390871,5441
3.391870,4929
3.392869,5025
3.393870,5249
3.394869,5761
3.395866,5537
3.396871,4897
3.397867,5681
3.398869,5457
3.399870,5713
3.400870,5681
3.401869,5281
3.402871,4769
3.403868,5137
3.404869,5441
3.405869,5169
3.406869,6097
3.407868,5793
3.408870,5089
3.409868,6353
3.410868,6289
3.411872,4609
3.412869,4753
3.413869,5729
3.414867,5425
3.415869,5889
3.416869,5153
3.417867,5409
3.418869,4993
3.419869,5089
3.420869,5729
3.421868,5409
3.422871,5041
3.423871,6209
3.424869,5665
3.425868,6289
3.426869,5553
3.427869,5137
3.428869,5425
3.429869,5505
3.430871,4817
3.431867,6289
3.432868,6369
3.433886,5201
3.434874,4897
3.435871,5041
3.436871,4865
3.437869,7329
3.438869,5809
3.439869,5313
3.440867,5521
3.441870,5169
3.442870,5089
3.443868,5697
3.444869,5009
3.445870,5329
3.446869,5713
3.447871,5121
3.448870,5201
3.449869,5201
3.450871,5553
3.451869,5185
3.452870,5009
3.453870,5681
3.454869,5505
3.455868,5345
3.456869,5249
3.457868,6497
3.458869,5905
3.459869,5089
3.460869,5185
3.461869,5361
3.462867,5569
3.463869,5345
3.464870,6337
3.465871,6033
3.466869,5073
3.467871,5041
3.468866,6097
3.469869,6609
3.470869,6065
3.471869,5921
3.472868,5713
3.473868,5569
3.474870,4817
3.475869,5313
3.476869,5137
3.477869,5569
3.478870,6177
3.479870,6241
3.480870,5569
3.481868,5249
3.482869,5617
3.483871,5505
3.484870,5329
3.485870,5457
3.486869,5185
3.487869,5409
3.488869,5601
3.489869,5377
3.490869,6241
3.491869,6385
3.492869,5313
3.493868,5057
3.494869,5377
3.495870,5841
3.496869,5713
3.497885,5041
3.498876,4353
3.499873,4801
3.500869,6097
3.501869,5777
3.502869,4929
3.503868,5633
3.504869,5265
3.505869,6689
3.506871,5505
3.507869,4737
3.508869,5601
3.509871,5137
3.510868,5345
3.511869,5169
3.512869,5249
3.513867,5761
3.514871,6849
3.515866,5697
3.516870,5153
3.517868,5777
3.518869,5089
3.519870,5505
3.520870,5585
3.521867,5297
3.522867,5489
3.523869,6017
3.524869,6097
3.525869,5153
3.526868,5825
3.527870,5185
3.528869,5505
3.529868,6065
3.530869,5457
3.531869,5681
3.532867,5537
3.533869,5585
3.534869,4689
3.535869,6401
3.536869,6145
3.537870,5137
3.538868,5057
3.539869,5313
3.540869,5825
3.541869,5649
3.542870,5009
3.543869,4865
3.544868,6545
3.545871,6177
3.546870,5905
3.547868,5409
3.548868,5617
3.549870,4993
3.550869,4321
3.551871,5009
3.552869,6577
3.553868,6577
3.554871,5297
3.555869,5713
3.556869,5889
3.557870,5329
3.558869,5665
3.559870,5313
3.560868,5105
3.561883,4769
3.562873,5553
3.725980,3872
3.726977,6849
3.727758,6369
3.728517,5473
3.729272,5409
3.730098,5393
3.730851,4929
3.731607,4497
3.732363,5393
3.733137,4609
3.733893,5281
3.734645,5905
3.735400,6033
3.736160,5057
3.736919,5153
3.737682,5009
3.738448,5505
3.739230,4705
3.739997,5521
3.740758,4417
3.741525,5345
3.742287,5793
3.743051,5665
3.743812,4433
3.744583,4337
3.745349,4945
3.746111,5889
3.746881,5937
3.747641,5201
3.748414,4625
3.749181,4209
3.749954,5681
3.750868,5441
3.751871,6081
3.752869,5585
3.753896,5153
3.754880,4497
3.755874,5617
3.756871,5953
3.757870,5313
3.758870,4561
3.759869,5681
3.760871,4929
3.761869,4769
3.762869,6561
3.763869,6529
3.764871,5441
3.765868,5697
3.766870,6049
3.767868,6241
3.768869,5473
3.769867,5089
3.770869,5585
3.771871,6241
3.772867,4945
3.773869,5393
3.774871,4545
3.775869,5249
3.776869,6817
3.777871,5985
3.778870,5697
3.779870,5985
3.780868,5425
3.781869,5185
3.782868,4785
3.793147,6209
3.793372,6209
3.793586,5521
3.793793,6289
3.794003,5585
3.794211,5249
3.794414,5281
3.794624,5713
3.794843,4913
3.795055,5313
3.795869,5457
3.796868,6353
3.797869,5905
3.798869,5249
3.799870,4897
3.800870,5121
3.801869,6705
3.802868,5985
3.803871,5889
3.804869,5345
3.805871,5585
3.806868,4641
3.807871,6673
3.808869,5537
3.809869,5393
3.810869,5761
3.811869,5889
3.812867,5697
3.813870,5617
3.814871,5153
3.815869,5313
3.816885,4177
3.817882,4801
3.818873,5329
3.819869,5969
3.820870,5505
3.821869,5665
3.822867,4241
3.823871,5553
3.824871,5553
3.825868,5281
3.826868,5617
3.827870,5297
3.828869,5937
3.829868,5153
3.830869,6561
3.831868,6481
3.832870,5281
3.833869,5697
3.834870,5313
3.835868,4689
3.836872,5281
3.837871,5153
3.838867,5025
3.839869,5825
3.840869,5409
3.841869,4833
3.842870,5777
3.843870,5425
3.844866,6241
3.845868,5025
3.846870,6657
3.847867,4401
3.848868,5329
3.849870,6017
3.850870,5793
3.851869,6097
3.852869,4961
3.853869,5601
3.854870,4225
3.855869,5425
3.856869,5601
3.857868,4513
3.858868,4785
3.859870,7057
3.860869,5777
3.861868,4801
3.862871,5633
3.863869,5601
3.864867,4369
3.865867,4321
3.866870,5073
3.867869,5905
3.868867,6705
3.869869,7009
3.870871,5681
3.871870,5217
3.872869,5297
3.873870,5825
3.874869,5729
3.875869,5089
3.876870,4929
3.877867,5217
3.878868,4929
3.879867,5649
3.880885,5361
3.881873,5441
3.882869,4721
3.883868,4689
3.884870,5697
3.885872,5073
3.886868,5025
3.887870,5313
3.888868,5441
3.889870,6625
3.890870,5601
3.891869,5585
3.892870,5905
3.893870,5057
3.894867,4048
3.895870,6977
3.896869,6657
3.897869,5441
3.898869,5185
3.899870,5041
3.900870,5409
3.901872,5441
3.902869,3856
3.903870,5553
3.904869,5825
3.905870,6145
3.906867,4897
3.907870,5361
3.908867,4016
3.909869,5089
3.910870,6561
3.911869,6209
3.912870,5761
3.913869,5393
3.914871,5345
3.915870,5537
3.916869,5457
3.917870,4913
3.918869,4753
3.919871,7185
4.070615,5521
4.071230,5585
4.071598,5201
4.071949,4433
4.072285,4497
4.072689,4529
4.073031,5393
4.073366,5665
4.073870,6241
4.074238,5681
4.074575,5921
4.074915,4577
4.075251,5121
4.075868,4481
4.076869,4433
4.077870,5425
4.078871,4433
4.079870,4753
4.080867,4177
4.081869,5121
4.082870,4689
4.083869,4193
4.084870,6097
4.085869,5553
4.086869,5681
4.087867,4064
4.088870,4417
4.089869,4625
4.090870,4577
4.091869,4481
4.092868,7361
4.093869,5825
4.094870,5393
4.095870,5169
4.096867,4209
4.097869,4769
4.098869,6497
4.099869,5345
4.100868,4769
4.101869,4593
4.102869,4737
4.103868,6273
4.104869,4689
4.105870,4417
4.106870,5057
4.107869,5073
4.108869,4529
4.109871,5601
4.110869,4849
4.111869,5009
4.112869,4817
4.113869,4016
4.114869,4417
4.115871,6081
4.116871,4561
4.117869,5377
4.118870,5857
4.119869,4577
4.120871,5281
4.121869,4337
4.122869,4753
4.123871,4881
4.124869,4016
4.125869,6289
4.126868,6337
4.127869,5473
4.128870,4385
4.129870,4305
4.130869,5153
4.131869,5249
4.132871,5409
4.133869,4753
4.134869,4785
4.135867,4529
4.136868,4064
4.137886,4977
4.138874,5585
4.139870,5473
4.140870,4609
4.141868,4353
4.142867,5009
4.143869,5585
4.144870,4369
4.145870,4865
4.146869,5073
4.147868,4673
4.148866,5169
4.149871,4641
4.150866,4321
4.151869,5873
4.152869,5393
4.153868,5041
4.154869,4785
4.155869,4641
4.156869,5729
4.157868,4064
4.158868,4769
4.159869,6177
4.160870,4897
4.161869,3872
4.162869,4161
4.163869,4129
4.164869,3808
4.165868,5185
4.166870,6033
4.167869,4753
4.168869,4433
4.169871,4545
4.170867,4801
4.171868,4032
4.172868,4193
4.173869,5297
4.174869,5553
4.175871,6561
4.176870,5185
4.177869,4129
4.178868,4801
4.179870,5553
4.180870,5569
4.181869,4673
4.182867,4145
4.183870,5217
4.184869,5521
4.185868,4961
4.186868,4657
4.187871,4064
4.188870,5089
4.189868,5089
4.190869,4593
4.191870,4257
4.192869,5217
4.193867,4113
4.194871,4881
4.195869,5297
4.196869,5393
4.197870,4705
4.198868,5569
4.199870,5729
4.200869,5217
4.201884,5121
4.202875,5169
4.203872,5169
4.204870,4241
4.205869,4193
4.206869,4737
4.207870,5249
4.208866,4657
4.209870,4705
4.210869,4529
4.211869,4929
4.212870,5153
4.213869,4673
4.214871,4513
4.215868,4865
4.216869,4753
4.217869,4945
4.218870,4801
4.219869,4865
4.220868,5137
4.221869,5137
4.222869,4497
4.223869,3920
4.224869,3584
4.225870,6225
4.226870,5281
4.227867,4737
4.228868,5313
4.229869,4609
4.230869,4401
4.231869,4865
4.232868,4032
4.233871,5265
4.234869,5537
4.235867,5137
4.236870,3536
4.237869,3936
4.238869,4609
4.239871,5649
4.240867,4193
4.241870,5185
4.242869,6321
4.243867,4193
4.244867,5089
4.245870,4833
4.246869,5393
4.247870,6337
4.248868,4849
4.249870,4097
4.250870,5089
4.251868,4497
4.252869,4577
4.253869,5057
4.254866,4881
4.255868,4769
4.256870,4529
4.257869,3856
4.258869,4497
4.259872,5185
4.260869,4769
4.261869,6241
4.375524,5297
4.376284,5825
4.376811,5409
4.377309,5121
4.377794,4945
4.378351,5649
4.378842,4673
4.379333,4897
4.379820,4177
4.380336,4225
4.380826,5009
4.381320,4000
4.381812,4433
4.382306,5537
4.382795,4769
4.383290,4961
4.383869,5633
4.384868,5329
4.385871,5281
4.386869,5201
4.387868,4801
4.388869,4241
4.389868,4097
4.390868,3920
4.391868,5073
4.392868,5505
4.393893,4625
4.394869,5569
4.395869,4113
4.396869,4097
4.397869,6065
4.398868,6369
4.399869,4785
4.400869,4305
4.401869,4497
4.402870,5025
4.403868,4769
4.404868,4401
4.405869,4881
4.406868,4433
4.407869,4433
4.408869,3840
4.409870,4641
4.410870,7105
4.411869,5841
4.412869,4449
4.413869,4945
4.414869,4833
4.415868,4097
4.416870,4561
4.417870,6369
4.418869,5489
4.419870,4881
4.420868,5009
4.421869,4080
4.422869,4225
4.423869,5537
4.424869,4945
4.425869,4753
4.426870,4577
4.427868,4545
4.428869,4977
4.429869,5409
4.430870,4785
4.431869,5745
4.432871,4945
4.433867,4257
4.434870,5409
4.435869,4785
4.436868,4449
4.437872,4641
4.438870,4305
4.439870,4145
4.440871,5409
4.441868,5473
4.442869,4929
4.443869,4241
4.444871,4817
4.445870,5025
4.446869,4929
4.447869,5265
4.448870,4497
4.449871,4609
4.450868,5089
4.451867,4433
4.452871,4561
4.453867,4881
4.454870,5265
4.455867,5345
4.456870,5409
4.457890,4385
4.458876,6753
4.459868,5169
4.460870,5073
4.461870,4353
4.462869,4513
4.463871,4417
4.464867,5201
4.465870,5505
4.466869,4689
4.467869,4673
4.468867,4737
4.469871,4289
4.470869,4929
4.471869,4641
4.472868,4161
4.473868,5313
4.474870,4097
4.475868,5953
4.476871,5153
4.477869,4433
4.478869,5041
4.479872,4145
4.480869,5313
4.481870,5329
4.482869,4753
4.483870,5169
4.484869,4817
4.485869,4161
4.486869,4497
4.487870,4625
4.488867,5105
4.489869,4577
4.490866,5201
4.491869,4561
4.492868,5073
4.493869,4385
4.494869,5457
4.495869,7201
4.496869,4625
4.497868,4385
4.498869,5281
4.499869,4481
4.500871,5329
4.501869,5073
4.502868,4577
4.503869,4657
4.504869,4753
4.505869,4737
4.506871,4417
4.507869,4801
4.508867,5393
4.509871,4833
4.510869,4737
4.511869,4769
4.512870,5281
4.513869,4657
4.514869,4625
4.515867,4593
4.516868,4417
4.517871,6273
4.518867,4945
4.519870,4385
4.520869,4481
4.521882,5137
4.522873,4529
4.523870,4433
4.524868,5025
4.525869,5281
4.526871,4897
4.527869,4673
4.528870,4097
4.529872,4193
4.530869,5153
4.531869,5169
4.532868,6737
4.533869,4865
4.534869,6113
4.535870,5393
4.536871,5153
4.537868,5569
4.538871,4161
4.539870,4465
4.540868,3952
4.541869,4129
4.542871,4897
4.543869,5457
4.544867,5329
4.545870,4897
4.546869,4721
4.547869,4385
4.548871,4657
4.549871,5009
4.550870,5649
4.551869,4545
4.552869,4048
4.553867,4721
4.554867,4353
4.555869,4913
4.556870,5281
4.557869,4129
4.558869,4561
4.559870,6209
4.560870,4689
4.561870,4048
4.562869,4545
4.563870,5793
4.564869,4593
4.565868,5057
4.566869,4369
4.728677,5185
4.729591,4785
4.730269,4689
4.730918,5121
4.731559,5153
4.732273,4625
4.732920,4625
4.733564,4577
4.734211,5665
4.734876,4609
4.735522,4769
4.736169,5809
4.736813,5297
4.737469,4769
4.738120,4689
4.738763,4737
4.739417,4913
4.740089,5281
4.740737,5489
4.741388,5009
4.742040,4481
4.742692,4305
4.743347,4801
4.744005,5393
4.744871,4113
4.745870,5153
4.746870,5665
4.747870,5217
4.748869,5137
4.749870,5265
4.750869,4945
4.751872,4353
4.752869,4513
4.753869,4833
4.754869,4273
4.755871,4321
4.756867,5585
4.757869,5649
4.758870,5537
4.759869,5265
4.760869,4705
4.761871,4417
4.762869,4865
4.763869,5505
4.764869,4945
4.765869,4369
4.766871,4657
4.767869,5057
4.768869,4369
4.769867,6065
4.770869,5281
4.771868,5377
4.772867,4705
4.773870,4849
4.774869,4337
4.775869,4449
4.776869,4032
4.777896,4897
4.778878,5633
4.779870,5697
4.780869,5489
4.781871,5265
4.782870,4673
4.783870,5505
4.784869,5569
4.785869,4032
4.786869,4657
4.787871,5857
4.788869,5265
4.789868,5953
4.790870,4561
4.791871,4385
4.792868,5617
4.793867,4753
4.794871,4801
4.795867,4881
4.796869,4641
4.797869,5297
4.798869,4225
4.799869,4353
4.800868,4609
4.801868,6673
4.802869,4881
4.803870,5057
4.804870,4689
4.805869,4481
4.806870,4449
4.807867,5057
4.808867,5281
4.809869,5025
4.810871,4641
4.811868,4161
4.812869,4225
4.813868,4561
4.814871,5889
4.815872,5409
4.816870,4593
4.817869,4433
4.818871,3968
4.819869,4737
4.820869,6097
4.821867,5777
4.822869,5697
4.823869,4353
4.824869,4609
4.825868,4241
4.826871,4945
4.827869,4609
4.828869,4945
4.829869,4913
4.830869,5601
4.831869,4833
4.832871,4897
4.833868,4513
4.834869,4641
4.835868,4705
4.836869,4785
4.837870,4401
4.838871,5217
4.839869,5985
4.840869,4177
4.841886,4801
4.842874,4289
4.843871,4545
4.844870,6113
4.845869,7489
4.846869,5633
4.847868,4849
4.848869,4609
4.849869,4881
4.850871,4689
4.851870,4865
4.852868,4737
4.853869,5617
4.854871,5073
4.855869,4273
4.856870,4401
4.857869,4977
4.858868,5857
4.859871,5377
4.860870,4513
4.861869,4881
4.862870,4449
4.863870,4817
4.864869,4689
4.865869,4673
4.866868,5905
4.867870,4865
4.868868,5281
4.869870,4497
4.870871,4209
4.871870,4689
4.872869,4961
4.873868,4993
4.874870,4865
4.875869,5137
4.876867,5025
4.877871,4257
4.878869,5473
4.879868,4817
4.880871,4737
4.881869,4961
4.882869,4737
4.883868,4193
4.884870,5473
4.885869,5185
4.886867,4481
4.887869,4016
4.888868,5185
4.889869,5121
4.890869,4945
4.891867,5937
4.892870,5329
4.893870,4337
4.894867,4609
4.895870,5201
4.896866,5905
4.897871,5233
4.898868,4897
4.899869,4113
4.900870,4321
4.901869,5265
4.902868,5457
4.903869,4609
4.904868,4625
4.905885,5697
4.906875,4801
4.907870,4193
4.908870,4561
4.909869,4993
4.910869,4785
4.911869,4993
4.912868,5025
4.913869,4257
4.914870,4945
4.915867,6337
4.916869,4785
4.917870,5073
4.918869,4369
4.919867,4497
5.080280,5761
5.082344,6177
5.083316,4785
5.084153,3904
5.084963,5537
5.085843,5601
5.086648,5617
5.087459,5889
5.088269,4801
5.089097,4545
5.089901,3712
5.090712,4881
5.091526,5169
5.092337,5201
5.093147,4561
5.093962,4977
5.101448,4897
5.101696,4689
5.101911,5281
5.102121,5361
5.102332,4785
5.102546,4913
5.102758,4913
5.102976,5953
5.103188,5537
5.103405,5137
5.103871,5137
5.104869,4769
5.105869,5185
5.106870,4753
5.107869,5121
5.108867,4769
5.109869,5825
5.110869,5953
5.111872,4881
5.112869,4561
5.113868,4449
5.114869,4385
5.115870,4193
5.116871,4897
5.117868,4673
5.118870,5921
5.119869,4305
5.120869,5473
5.121871,5585
5.122871,4064
5.123869,4080
5.124869,4080
5.125871,5121
5.126868,5553
5.127870,5201
5.128869,4225
5.129870,4449
5.130870,6417
5.131868,5345
5.132869,4801
5.133870,4945
5.134869,5441
5.135869,4865
5.136871,4545
5.137870,4817
5.138869,4641
5.139869,4977
5.140868,4785
5.141870,4769
5.142869,5777
5.143869,5041
5.144867,4865
5.145869,4561
5.146869,4417
5.147866,5313
5.148868,4913
5.149869,5729
5.150869,5553
5.151869,4321
5.152869,4849
5.153869,5425
5.154869,4673
5.155869,4513
5.156870,4801
5.157871,5569
5.158867,5153
5.159870,4929
5.160890,4833
5.161875,5201
5.162869,5025
5.163869,4865
5.164869,4801
5.165871,4609
5.166868,5153
5.167869,4673
5.168870,4929
5.169867,5649
5.170870,4673
5.171869,4641
5.172869,4641
5.173868,4801
5.174870,5969
5.175871,6465
5.176869,5169
5.177870,4385
5.178866,4689
5.179871,4481
5.180869,4289
5.181870,4641
5.182870,6081
5.183869,5297
5.184869,4737
5.185869,4849
5.186870,4625
5.187869,4897
5.188867,5425
5.189871,5249
5.190869,4817
5.191868,4561
5.192870,4833
5.193869,4833
5.194870,4385
5.195869,5553
5.196869,5025
5.197870,6097
5.198869,5473
5.199870,4689
5.200869,4785
5.201869,5265
5.202868,5617
5.203870,4833
5.204868,4561
5.205870,4369
5.206870,5585
5.207871,4145
5.208867,4833
5.209869,5585
5.210868,5121
5.211869,5473
5.212869,4577
5.213867,4801
5.214867,5425
5.215869,4289
5.216869,5793
5.217870,4913
5.218869,4881
5.219868,5329
5.220869,4577
5.221867,4929
5.222871,5345
5.223869,4769
5.224886,5585
5.225874,4801
5.226872,4945
5.227871,5009
5.228869,5569
5.229869,4481
5.230870,4609
5.231868,5137
5.232869,4689
5.233869,5313
5.234869,4673
5.235868,4689
5.236871,6353
5.237867,4865
5.238868,4833
5.239870,4609
5.240870,4161
5.241869,4417
5.242872,5809
5.243868,6097
5.244867,4785
5.245870,4849
5.246868,6833
5.247869,5969
5.248869,4625
5.249867,4801
5.250871,4913
5.251868,4577
5.252869,5553
5.253867,5041
5.254868,4657
5.255867,4673
5.256870,4353
5.257869,5345
5.258869,5841
5.259869,5169
5.260869,4961
5.261868,4673
5.262869,5889
5.263871,4945
5.264868,4529
5.265868,5313
5.266868,5025
5.267870,5265
5.268869,5009
5.269869,5009
5.270869,4609
5.271869,4865
5.272871,4897
5.273868,5169
5.274870,4529
5.275870,5873
5.276868,5553
5.393565,5393
5.394201,5969
5.394594,5345
5.394973,5265
5.395343,4673
5.395771,4689
5.396143,5009
5.396508,4753
5.396875,4497
5.397258,4737
5.397621,4929
5.397995,5473
5.398362,5953
5.398868,5329
5.399868,4881
5.400869,4881
5.401869,5153
5.402869,5009
5.403869,4753
5.404871,4689
5.405869,5313
5.406869,5505
5.407869,5201
5.408868,5281
5.409870,5201
5.410869,4865
5.411870,4865
5.412870,5025
5.413869,4865
5.414869,4705
5.415869,4433
5.416870,4769
5.417887,5441
5.418878,4689
5.419872,4737
5.420868,4785
5.421869,5777
5.422870,5601
5.423868,5249
5.424868,5521
5.425870,5345
5.426866,5217
5.427870,4625
5.428870,4641
5.429868,5345
5.430869,5857
5.431868,5201
5.432871,4513
5.433868,5281
5.434871,5185
5.435869,4305
5.436869,5985
5.437869,4897
5.438867,5953
5.439870,4689
5.440870,4945
5.441868,5393
5.442869,5169
5.443869,5105
5.444867,5185
5.445868,5025
5.446872,4497
5.447869,5121
5.448868,5345
5.449867,5137
5.450869,4881
5.451870,4481
5.452869,4929
5.453868,5825
5.454869,5169
5.455868,5121
5.456868,5313
5.457869,4657
5.458871,5297
5.459869,5217
5.460869,4913
5.461870,5153
5.462870,4801
5.463869,6017
5.464871,5153
5.465868,4913
5.466869,5185
5.467871,5297
5.468870,5649
5.469868,5409
5.470869,5313
5.471868,5377
5.472870,5617
5.473871,5169
5.474869,5121
5.475869,4753
5.476867,5585
5.477870,5121
5.478869,5281
5.479871,5009
5.480868,4993
5.481886,5937
5.482874,5457
5.483869,5585
5.484868,5537
5.485871,4737
5.486871,5585
5.487870,4881
5.488869,4817
5.489869,5457
5.490868,5265
5.491870,4945
5.492869,5153
5.493869,5041
5.494867,5409
5.495868,5329
5.496869,5409
5.497870,4865
5.498871,4705
5.499869,4913
5.500869,5073
5.501870,5393
5.502870,5441
5.503869,5041
5.504870,5329
5.505870,4833
5.506868,5185
5.507870,4657
5.508869,5345
5.509872,5073
5.510869,5393
5.511868,5393
5.512869,4737
5.513869,4865
5.514871,4321
5.515871,5313
5.516868,5473
5.517870,5025
5.518869,5153
5.519871,5089
5.520870,4625
5.521869,4529
5.522868,5521
5.523869,5393
5.524869,4833
5.525869,5345
5.526870,5649
5.527867,5329
5.528870,5025
5.529871,4929
5.530868,5697
5.531869,5361
5.532867,5009
5.533868,5281
5.534868,5441
5.535869,5409
5.536870,4865
5.537869,5185
5.538869,4833
5.539868,4545
5.540870,4801
5.541870,6033
5.542870,5441
5.543867,4769
5.544870,4929
5.545883,4433
5.546877,5425
5.547871,5281
5.548868,4993
5.549870,5169
5.550869,5105
5.551869,5121
5.552870,5729
5.553869,5681
5.554869,5841
5.555868,5377
5.556868,5249
5.557869,5057
5.558868,5089
5.559870,4993
5.560869,5201
5.561870,4865
5.562868,5009
5.563870,6065
5.564869,4961
5.565870,4641
5.566869,6321
5.567868,5617
5.568870,5345
5.569869,5409
5.570869,4865
5.571869,5377
5.572869,5345
5.573868,5569
5.574869,4929
5.575870,4705
5.576871,5281
5.577869,5137
5.578869,5169
5.579869,4945
5.580867,5633
5.581869,6305
5.582869,5441
5.583869,4737
5.584869,4961
5.747993,5297
5.748757,4657
5.749302,4577
5.749825,4593
5.750346,5313
5.750932,5409
5.751450,5153
5.751972,5057
5.752490,5553
5.753030,4945
5.753548,4833
5.754070,5793
5.754589,5857
5.755117,5473
5.755643,4913
5.756167,4753
5.756691,5441
5.757243,5905
5.757869,5681
5.758869,5777
5.759867,5201
5.760868,5249
5.761870,5409
5.762869,5025
5.763869,5841
5.764870,5425
5.765867,5825
5.766871,5249
5.767869,5169
5.768869,5537
5.769870,4993
5.770869,5217
5.771869,5473
5.772869,6593
5.773869,5553
5.774868,4881
5.775869,5041
5.776869,5377
5.777869,5937
5.778870,5121
5.779868,5249
5.780869,5809
5.781868,5953
5.782869,6177
5.783870,6993
5.784871,6049
5.785870,5521
5.786871,4801
5.787870,5089
5.788868,5985
5.789869,5521
5.790870,5185
5.791870,6033
5.792868,5985
5.793869,5265
5.794868,5409
5.795870,5137
5.796869,6353
5.797871,5889
5.798869,5153
5.799870,4593
5.800869,5649
5.801902,5009
5.802873,4945
5.803869,5921
5.804868,5537
5.805869,5729
5.806869,5329
5.807869,5665
5.808869,6353
5.809868,5457
5.810870,5585
5.811867,5681
5.812869,5441
5.813869,5601
5.814869,5249
5.815868,5009
5.816868,5793
5.817869,5793
5.818869,5409
5.819868,4897
5.820871,5537
5.821869,5249
5.822869,6017
5.823869,6369
5.824870,5505
5.825869,5761
5.826870,5889
5.827869,5425
5.828870,4785
5.829871,4817
5.830870,5409
5.831869,5937
5.832868,5521
5.833869,5761
5.834870,5713
5.835867,5857
5.836869,5169
5.837869,5393
5.838869,5041
5.839869,5825
5.840870,6033
5.841869,6033
5.842871,5025
5.843868,5953
5.844870,5553
5.845867,5361
5.846868,5009
5.847870,4817
5.848869,5089
5.849869,5713
5.850869,5377
5.851869,5025
5.852869,4801
5.853868,5009
5.854870,5585
5.855869,5393
5.856872,5713
5.857870,5121
5.858868,5025
5.859868,6545
5.860868,6193
5.861870,6689
5.862870,6033
5.863868,6273
5.864869,5793
5.865891,5953
5.866874,5297
5.867870,5425
5.868869,4961
5.869869,5153
5.870870,5057
5.871868,5121
5.872868,5265
5.873867,5137
5.874870,5025
5.875868,5441
5.876870,5041
5.877869,4897
5.878868,6673
5.879868,6305
5.880870,5857
5.881869,5041
5.882866,5329
5.883869,5953
5.884869,5137
5.885868,4689
5.886871,4929
5.887868,4961
5.888871,5473
5.889868,5249
5.890870,6289
5.891869,6033
5.892868,5297
5.893870,5201
5.894870,5137
5.895867,5297
5.896871,5137
5.897869,5553
5.898871,6081
5.899870,5473
5.900872,5729
5.901869,6833
5.902868,4433
5.903871,5185
5.904869,6417
5.905870,6081
5.906870,5441
5.907868,5697
5.908868,6209
5.909868,5793
5.910869,5521
5.911872,5009
5.912870,6673
5.913870,6673
5.914870,5249
5.915870,5441
5.916869,4769
5.917872,5121
5.918870,4865
5.919868,5217
5.920869,5569
5.921869,5905
5.922871,6033
5.923869,5217
5.924870,5393
5.925868,5409
5.926871,5537
5.927869,6353
5.928869,6289
5.929885,4385
5.930873,5521
5.931870,5425
5.932868,5073
5.933869,5281
5.934871,5025
5.935869,6097
5.936868,5457
5.937869,5521
5.938870,5057
6.094217,6017
6.095157,4769
6.095869,6289
6.096545,7265
6.097220,7185
6.097958,6257
6.098631,5153
6.099305,4177
6.099985,3520
6.100675,4689
6.101352,4737
6.102029,4577
6.102706,4481
6.103383,4529
6.104061,5857
6.104733,4897
6.105412,4080
6.106117,4913
6.106793,5649
6.107477,5553
6.108161,4737
6.108848,4881
6.109524,4897
6.110213,4705
6.110897,5633
6.111872,6657
6.112868,6785
6.113870,5601
6.114870,5409
6.115868,5377
6.116869,5873
6.117869,5169
6.118871,6241
6.119871,5105
6.120868,5201
6.121887,4209
6.122875,5857
6.123874,6097
6.124871,6785
6.125870,7681
6.126869,6113
6.127870,5313
6.128867,5137
6.129869,5121
6.130868,5905
6.131868,7969
6.132869,6321
6.133868,5361
6.134869,5473
6.135870,6257
6.136871,5521
6.137871,5665
6.138869,5777
6.139869,4833
6.140869,5217
6.141869,6817
6.142871,5585
6.143870,5553
6.144869,5697
6.145867,5761
6.146869,6401
6.147870,5505
6.148870,4993
6.149869,6785
6.150869,5505
6.151868,5329
6.152871,5441
6.153869,5457
6.154870,5121
6.155869,7121
6.156869,7425
6.157869,6353
6.158869,4833
6.159870,5457
6.160870,5393
6.161870,6529
6.162872,5505
6.163869,5153
6.164871,5265
6.165868,5297
6.166871,5697
6.167870,6241
6.168868,5521
6.169869,5793
6.170869,5585
6.171869,5169
6.172868,5249
6.173869,5505
6.174869,5057
6.175869,5217
6.176869,6673
6.177871,6097
6.178870,5425
6.179869,5937
6.180868,5457
6.181871,6065
6.182868,7185
6.183870,6033
6.184868,4785
6.185882,4113
6.186874,4993
6.187872,5377
6.188870,5473
6.189868,5441
6.190869,5729
6.191870,5697
6.192871,6161
6.193868,5649
6.194869,5713
6.195871,5729
6.196870,6385
6.197870,6497
6.198871,4993
6.199868,5169
6.200869,5073
6.201867,4961
6.202869,7137
6.203869,5281
6.204870,5969
6.205870,5313
6.206866,3872
6.207870,5713
6.208869,6561
6.209872,5553
6.210869,6209
6.211869,5201
6.212870,5521
6.213870,5009
6.214870,6529
6.215870,6801
6.216871,6881
6.217869,7297
6.218868,4993
6.219870,5313
6.220868,5281
6.221869,5441
6.222871,4513
6.223870,6353
6.224869,5985
6.225871,4865
6.226868,5281
6.227870,5345
6.228870,8065
6.229868,5057
6.230868,6609
6.231869,4945
6.232869,6865
6.233868,6401
6.234870,5697
6.235868,7265
6.236869,6961
6.237870,7009
6.238869,5921
6.239868,5793
6.240868,6865
6.241870,5377
6.242870,5329
6.243869,5121
6.244872,5601
6.245870,6497
6.246868,7089
6.247869,6609
6.248869,5681
6.249883,5809
6.250871,8322
6.251869,7521
6.252869,5329
6.253869,6833
6.254868,4641
6.255869,7953
6.256869,5905
6.257870,4913
6.258868,5841
6.259872,5761
6.260870,6641
6.261867,5889
6.262869,6273
6.263869,6049
6.264870,5393
6.265869,5713
6.266870,5169
6.267869,8370
6.268871,7969
6.269870,5249
6.270868,7137
6.271869,10066
6.272869,7057
6.273867,8290
6.274868,7521
6.275868,4817
6.276870,10914
6.277871,9538
6.278869,5201
6.279869,5057
6.280870,5729
6.281871,5121
6.282869,6609
6.283869,7937
6.284871,6081
6.285869,7777
6.441761,5569
6.442252,8177
6.442517,7121
6.442761,6177
6.443001,6033
6.443264,4193
6.443494,3872
6.443726,4785
6.443963,3968
6.444213,4481
6.444444,4561
6.444867,4401
6.445869,9090
6.446869,4129
6.447871,6945
6.448870,13891
6.449869,5169
6.450870,6353
6.451870,5121
6.452867,8530
6.453870,8386
6.454869,6337
6.455868,9042
6.456869,15267
6.457869,7265
6.458870,19428
6.459871,9026
6.460868,7889
6.461870,15171
6.462867,4417
6.463870,11010
6.464871,7825
6.465870,8177
6.466869,8033
6.467868,6465
6.468869,22773
6.469869,22565
6.470869,8129
6.471870,6289
6.472870,8177
6.473870,10626
6.474868,6657
6.475869,4385
6.476868,11170
6.477869,7265
6.478868,5233
6.479870,13475
6.480869,19940
6.481869,7761
6.482869,4465
6.483869,5793
6.484869,4641
6.485867,14467
6.486870,13219
6.487869,11106
6.488869,8194
6.489870,8722
6.490869,4897
6.491869,4641
6.492870,4993
6.493871,7905
6.494869,18724
6.495869,9442
6.496870,6593
6.497869,16259
6.498868,14243
6.499869,22357
6.500867,24549
6.501869,45739
6.502869,18868
6.503868,4481
6.504870,19748
6.505886,24261
6.506875,35560
6.507871,33336
6.508869,11986
6.509869,17076
6.510870,13459
6.511869,8642
6.512870,6209
6.513869,12995
6.514869,4032
6.515869,12947
6.516868,16804
6.517869,5809
6.518869,8914
6.519868,5377
6.520867,4273
6.521869,5985
6.522870,7009
6.523869,17844
6.524870,16852
6.525867,22165
6.526870,7953
6.527869,16211
6.528868,10546
6.529869,19972
6.530867,12114
6.531871,17364
6.532868,25686
6.533868,8033
6.534869,17204
6.535871,10706
6.536870,5457
6.537866,12339
6.538869,7441
6.539870,14883
6.540869,8514
6.541869,11042
6.542870,4433
6.543870,7729
6.544871,4993
6.545869,6849
6.546868,4753
6.547869,18244
6.548868,9250
6.549870,9506
6.550869,12499
6.551867,23253
6.552870,5345
6.553866,13907
6.554867,25862
6.555870,6449
6.556870,6737
6.557869,5905
6.558871,6449
6.559867,11426
6.560869,4625
6.561870,5009
6.562869,12931
6.563872,20356
6.564869,8177
6.565871,5969
6.566869,16452
6.567871,20485
6.568871,18948
6.569884,21845
6.570877,5457
6.571871,14035
6.572870,12098
6.573869,21637
6.574869,10386
6.575869,4032
6.576869,8626
6.577868,8177
6.578870,4113
6.579868,4993
6.580871,10210
6.581869,6769
6.582869,6801
6.583869,17668
6.584869,22997
6.585868,24582
6.586869,11266
6.587869,9522
6.588869,7105
6.589869,8738
6.590869,16820
6.591872,5601
6.592868,9858
6.593869,12451
6.594871,24886
6.595870,10562
6.596869,5473
6.597868,5633
6.598869,4273
6.599870,16291
6.600869,22405
6.601870,4609
6.602871,8946
6.603866,8322
6.604869,7185
6.605869,4753
6.606872,13411
6.607870,8322
6.608870,9794
6.609869,19748
6.610869,7601
6.611868,9426
6.612870,5265
6.613868,15091
6.614867,20068
6.615868,5777
6.616870,7921
6.617868,11154
6.618869,10834
6.619870,4993
6.620868,9874
6.621869,4753
6.622870,19332
6.623869,11474
6.624869,6817
6.625869,10482
6.626869,5985
6.627871,9058
6.628868,4705
6.629868,28759
6.630869,4481
6.631870,33800
6.632868,10194
6.746421,15555
6.747064,8578
6.747482,4897
6.747875,10530
6.748260,12835
6.748714,9266
6.749104,25222
6.749489,17028
6.749875,6161
6.750282,6241
6.750667,7105
6.751056,7201
6.751448,6209
6.751871,3872
6.752869,7377
6.753867,5185
6.754869,11394
6.755869,5905
6.756869,58014
6.757871,61102
6.758867,9218
6.759869,7473
6.760869,10402
6.761906,19652
6.762878,14563
6.763874,24117
6.764872,18180
6.765870,17716
6.766868,16035
6.767869,10530
6.768869,29415
6.769871,14723
6.770868,4593
6.771867,8177
6.772868,11618
6.773870,32039
6.774869,8594
6.775869,10274
6.776870,4721
6.777868,6753
6.778869,23877
6.779868,27366
6.780870,17588
6.781869,5361
6.782869,17556
6.783869,4737
6.784869,18612
6.785869,17124
6.786869,6417
6.787869,50108
6.788870,51756
6.789870,7185
6.790867,5633
6.791868,10946
6.792868,21909
6.793871,9810
6.794869,10626
6.795867,10306
6.796869,5121
6.797869,11426
6.798870,14435
6.799869,14211
6.800870,11458
6.801868,14291
6.802869,23157
6.803869,4993
6.804871,30119
6.805869,11090
6.806869,10898
6.807868,10354
6.808871,21541
6.809869,27798
6.810871,23253
6.811870,22885
6.812869,12098
6.813869,29255
6.814867,10946
6.815871,16564
6.816868,4737
6.817869,17780
6.818869,7553
6.819868,6369
6.820868,36648
6.821868,21109
6.822868,6705
6.823869,15811
6.824871,7121
6.825889,10978
6.826877,5729
6.827869,5457
6.828870,22069
6.829870,27366
6.830870,17028
6.831869,9522
6.832867,4609
6.833869,4433
6.834869,22613
6.835869,5217
6.836869,19236
6.837869,4641
6.838870,7825
6.839870,3920
6.840869,16291
6.841869,37705
6.842869,11138
6.843869,38217
6.844868,36696
6.845871,4113
6.846870,7681
6.847869,5201
6.848869,23717
6.849871,6113
6.850871,9058
6.851869,4945
6.852869,24149
6.853870,6577
6.854870,7457
6.855868,18932
6.856868,6161
6.857869,19284
6.858869,15123
6.859870,8113
6.860867,41946
6.861870,19284
6.862869,5857
6.863868,14099
6.864869,22325
6.865869,11778
6.866869,7777
6.867868,6321
6.868870,4497
6.869868,5201
6.870871,15747
6.871870,15043
6.872868,9698
6.873871,21045
6.874869,21605
6.875870,10146
6.876868,8994
6.877869,15411
6.878870,17380
6.879868,8177
6.880869,8466
6.881869,30743
6.882869,7937
6.883869,58590
6.884869,34056
6.885869,13347
6.886869,5521
6.887869,41322
6.888871,40393
6.889888,17748
6.890877,6241
6.891868,4321
6.892868,4609
6.893871,16996
6.894869,7665
6.895867,13395
6.896871,14387
6.897869,10674
6.898870,12755
6.899867,10002
6.900869,13731
6.901868,7697
6.902871,9922
6.903868,9538
6.904869,4897
6.905871,26342
6.906870,4945
6.907871,12355
6.908869,12531
6.909870,10386
6.910869,27926
6.911867,18164
6.912870,34600
6.913868,46539
6.914869,13011
6.915869,10562
6.916867,22885
6.917870,6049
6.918870,9266
6.919868,37225
6.920871,28775
6.921870,15363
6.922870,19332
6.923869,5889
6.924870,17460
6.925868,4929
6.926872,29287
6.927867,5873
6.928868,11586
6.929869,12018
6.930870,4737
6.931871,17812
6.932871,4273
6.933871,6481
6.934871,8722
6.935869,14163
6.936868,20196
6.937870,33432
7.151458,11858
7.152258,8081
7.152824,17172
7.153374,7041
7.153918,23653
7.154525,32984
7.155067,13651
7.155607,6737
7.156150,5809
7.156702,8290
7.157245,7937
7.157787,7537
7.158335,6017
7.158879,8482
7.159420,9234
7.159964,5777
7.160510,6017
7.161077,13731
7.161869,8161
7.162870,16804
7.163870,6193
7.164867,8177
7.165870,11698
7.166869,12643
7.167869,21669
7.168869,20420
7.169869,5121
7.170870,8466
7.171869,58142
7.172868,12258
7.173871,4737
7.174869,7201
7.175869,9122
7.176869,6545
7.177870,16275
7.178869,6689
7.179869,7617
7.180870,5393
7.181867,11842
7.182868,7649
7.183870,12659
7.184869,14067
7.185869,10978
7.186871,28566
7.187869,37289
7.188869,5537
7.189869,5281
7.190869,6289
7.191870,4897
7.192870,7505
7.193869,4961
7.194870,29719
7.195869,8113
7.196870,14995
7.197868,23189
7.198870,8177
7.199869,8914
7.200869,30343
7.201869,18820
7.202869,8738
7.203868,5025
7.204869,40425
7.205867,8290
7.206871,43434
7.207869,5777
7.208867,12867
7.209888,6161
7.210875,8258
7.211869,6849
7.212868,11058
7.213869,14163
7.214867,16836
7.215871,29335
7.216869,24774
7.217867,10690
7.218869,19172
7.219870,7457
7.220869,7009
7.221869,5057
7.222868,6433
7.223868,6961
7.224871,14595
7.225869,5009
7.226869,17924
7.227869,13971
7.228869,4657
7.229868,5057
7.230869,11186
7.231871,9538
7.232870,10642
7.233870,4561
7.234868,8177
7.235868,8017
7.236868,9122
7.237869,13123
7.238870,5825
7.239869,6017
7.240869,12130
7.241869,6753
7.242869,6273
7.243869,29815
7.244870,28342
7.245869,5889
7.246870,13059
7.247871,9554
7.248868,12034
7.249869,4449
7.250869,16339
7.251870,5681
7.252871,4385
7.253867,4417
7.254870,12979
7.255870,9042
7.256869,5121
7.257868,25574
7.258869,4753
7.259870,27686
7.260867,17476
7.261868,7425
7.262868,35992
7.263869,57341
7.264869,21909
7.265869,16099
7.266868,7985
7.267869,4993
7.268870,28006
7.269871,33256
7.270870,30359
7.271869,11938
7.272868,6817
7.273886,16291
7.274872,10482
7.275870,9234
7.276870,21141
7.277869,33624
7.278868,24774
7.279869,10194
7.280867,10450
7.281870,19732
7.282868,16355
7.283870,12291
7.284871,17476
7.285868,11282
7.286868,31415
7.287868,5313
7.288869,10258
7.289869,7169
7.290871,9554
7.291866,29847
7.292867,7105
7.293868,17332
7.294870,7345
7.295869,19780
7.296869,13011
7.297871,5169
7.298869,13811
7.299869,5393
7.300868,15155
7.301870,11442
7.302869,5969
7.303870,22037
7.304869,23477
7.305870,12242
7.306869,5793
7.307871,34696
7.308868,5153
7.309870,14259
7.310870,18132
7.311869,19716
7.312869,4945
7.313870,10402
7.314870,13363
7.315871,26518
7.316870,19268
7.317871,5905
7.318868,27702
7.319869,15811
7.320867,8786
7.321869,4689
7.322871,12307
7.323870,43658
7.324870,40953
7.325868,34584
7.326870,5713
7.327869,58734
7.328869,65535
7.329870,46667
7.330869,9762
7.331869,65535
7.332869,65535
7.333870,14659
7.334867,33656
7.335869,10530
7.336870,23525
7.337883,10738
7.338877,4817
7.339872,18516
7.340871,5009
7.341870,6033
7.342869,20709
7.494897,10498
7.495843,7809
7.496575,6753
7.497284,5921
7.497983,11906
7.498752,13379
7.499456,19140
7.500154,45034
7.500855,29399
7.501568,6305
7.502268,5281
7.502970,2688
7.503670,10162
7.504379,21957
7.505087,21381
7.505794,9874
7.506502,11922
7.507237,6033
7.507948,5025
7.508654,11618
7.509363,6753
7.510076,4529
7.510782,17236
7.511496,5409
7.512209,33272
7.512923,44122
7.513635,29783
7.514351,16564
7.515067,5425
7.515869,26342
7.516870,35096
7.517868,32776
7.518867,13283
7.519868,12595
7.520869,7729
7.521869,32167
7.522867,13171
7.523869,7617
7.524870,21173
7.525869,34824
7.526871,30759
7.527871,6753
7.528870,8161
7.529887,9138
7.530873,22581
7.531869,9442
7.532869,11202
7.533869,11778
7.534871,18228
7.535869,10194
7.536869,5537
7.537868,5137
7.538870,5377
7.539868,4913
7.540871,8610
7.541867,20933
7.542869,10674
7.543869,14771
7.544869,21573
7.545869,12066
7.546868,4833
7.547869,12082
7.548869,6881
7.549870,6321
7.550869,6449
7.551869,5713
7.552869,16323
7.553868,14211
7.554868,12258
7.555869,33512
7.556869,6737
7.557871,34696
7.558868,19300
7.559869,5665
7.560870,23381
7.561869,36184
7.562869,5185
7.563869,10066
7.564869,10898
7.565870,11058
7.566869,9746
7.567868,6753
7.568870,23525
7.569869,28230
7.570867,5905
7.571870,17700
7.572869,18164
7.573868,7601
7.574870,62399
7.575869,27046
7.576868,5713
7.577869,4945
7.578868,7905
7.579869,11298
7.580868,6817
7.581869,25366
7.582871,11874
7.583869,7761
7.584870,11442
7.585871,10818
7.586868,5521
7.587870,7041
7.588870,4577
7.589870,11106
7.590868,54317
7.591869,38473
7.592872,4561
7.593888,15187
7.594874,16980
7.595871,22117
7.596869,24325
7.597869,5953
7.598870,20645
7.599869,32167
7.600869,9730
7.601869,10578
7.602870,10322
7.603869,7745
7.604870,7857
7.605870,14819
7.606871,17860
7.607869,6225
7.608869,7489
7.609868,21941
7.610870,52028
7.611869,7713
7.612870,24565
7.613870,53533
7.614868,22053
7.615870,5137
7.616870,8786
7.617868,18292
7.618870,4545
7.619869,8226
7.620869,7457
7.621869,41306
7.622871,8546
7.623868,8482
7.624867,53549
7.625869,6529
7.626872,39657
7.627868,35768
7.628871,36056
7.629869,7393
7.630869,22069
7.631868,29015
7.632871,53917
7.633869,65535
7.634869,57341
7.635868,5777
7.636868,14659
7.637870,30999
7.638867,24005
7.639870,7041
7.640870,18340
7.641871,38185
7.642867,40441
7.643868,45803
7.644869,24213
7.645870,18500
7.646871,15587
7.647871,35720
7.648870,28118
7.649869,7425
7.650870,4801
7.651868,6529
7.652871,8194
7.653869,27238
7.654869,53389
7.655869,13027
7.656888,12883
7.657875,28614
7.658870,16948
7.659869,9282
7.660870,9778
7.671480,64815
7.671709,60222
7.671930,53164
7.672143,45018
7.672349,34776
7.672562,26758
7.672773,17172
7.672988,6737
7.673203,5841
7.673420,6641
7.673869,5185
7.674869,15011
7.675869,6529
7.676869,27542
7.677870,6897
7.678869,20196
7.679869,34664
7.680869,12643
7.681870,8898
7.682871,13475
7.683867,25350
7.684871,9186
7.685867,8498
7.686869,5297
7.687870,14627
7.800079,12563
7.800615,8578
7.800941,8562
7.801224,9250
7.801504,9234
7.801852,8177
7.802133,8258
7.802413,9506
7.802693,14595
7.802999,23941
7.803275,26518
7.803869,16612
7.804870,5617
7.805870,24565
7.806869,25334
7.807871,26518
7.808869,40841
7.809868,23237
7.810869,13843
7.811870,9938
7.812869,7857
7.813868,5729
7.814869,28262
7.815870,40953
7.816867,5761
7.817869,7937
7.818868,27494
7.819871,27462
7.820871,6049
7.821869,26678
7.822871,21189
7.823869,7345
7.824868,4769
7.825869,9986
7.826870,9490
7.827867,7297
7.828871,20901
7.829869,15475
7.830866,7969
7.831871,5009
7.832872,7761
7.833870,5009
7.834870,6433
7.835871,6145
7.836871,14659
7.837868,9826
7.838869,6241
7.839867,9138
7.840869,9938
7.841871,5617
7.842869,10866
7.843870,5521
7.844869,9634
7.845869,33064
7.846869,27846
7.847868,6289
7.848871,38761
7.849890,13203
7.850878,6017
7.851874,18628
7.852869,27094
7.853867,7249
7.854870,23829
7.855869,17316
7.856869,14691
7.857869,5569
7.858871,5201
7.859868,16708
7.860868,33256
7.861869,14643
7.862871,7905
7.863869,6497
7.864871,4897
7.865869,14483
7.866869,21557
7.867871,8626
7.868870,14723
7.869869,5185
7.870869,8177
7.871870,6449
7.872867,9650
7.873867,5281
7.874869,5329
7.875870,4929
7.876868,10978
7.877869,6593
7.878867,8065
7.879867,8145
7.880869,8065
7.881871,18484
7.882871,8306
7.883869,12947
7.884869,5009
7.885869,9970
7.886870,9250
7.887870,14371
7.888870,13027
7.889869,5553
7.890871,20468
7.891868,15331
7.892868,6529
7.893867,8962
7.894871,19508
7.895869,20661
7.896869,11810
7.897869,33448
7.898870,13827
7.899869,26710
7.900868,20164
7.901868,5329
7.902870,16083
7.903868,5025
7.904871,9362
7.905869,13539
7.906870,9106
7.907869,8097
7.908869,8258
7.909869,11138
7.910869,30695
7.911869,11378
7.912868,17412
7.913885,9442
7.914876,40425
7.915870,33240
7.916870,18820
7.917870,8706
7.918868,15059
7.919871,5057
7.920871,19780
7.921869,12627
7.922871,14387
7.923870,6689
7.924869,10882
7.925868,13715
7.926871,5921
7.927868,13459
7.928870,10594
7.929867,7937
7.930868,7713
7.931869,4945
7.932868,5713
7.933869,9682
7.934870,12947
7.935869,5665
7.936869,5057
7.937869,5889
7.938869,7937
7.939872,9346
7.940869,6417
7.941869,7345
7.942868,6801
7.943868,11074
7.944869,9186
7.945869,18884
7.946868,5409
7.947870,6753
7.948869,24565
7.949869,8145
7.950868,5985
7.951869,9986
7.952870,13251
7.953869,9810
7.954870,6993
7.955869,6433
7.956869,7265
7.957872,5345
7.958867,7105
7.959868,6593
7.960868,10274
7.961870,8658
7.962870,12659
7.963872,8882
7.964867,14867
7.965871,22117
7.966869,6369
7.967870,22453
7.968869,5761
7.969869,5729
7.970870,4929
7.971871,11730
7.972869,10818
7.973870,10034
7.974869,14915
7.975871,4753
7.976868,8177
7.977891,15075
7.978878,15459
7.979870,24565
7.980870,42058
7.981870,51356
7.982870,19924
7.983870,9410
7.984869,5073
7.985870,9698
7.986869,17524
7.987869,11154
7.988868,5873
7.989866,12194
7.990870,15507
7.991869,5345
8.153352,6865
8.154060,11074
8.154525,5569
8.154968,7345
8.155403,6657
8.155907,11922
8.156340,19988
8.156774,19396
8.157216,6417
8.157670,8930
8.158106,20933
8.158541,29975
8.158976,22117
8.159406,8097
8.159871,7921
8.160867,9938
8.161868,11074
8.162869,14739
8.163870,5425
8.164869,5697
8.165869,7105
8.166868,5393
8.167869,10338
8.168869,15635
8.169891,38713
8.170878,42138
8.171872,5457
8.172869,8177
8.173869,13347
8.174869,9698
8.175871,10626
8.176869,7441
8.177868,10498
8.178868,10322
8.179869,5025
8.180869,10786
8.181871,10850
8.182868,30247
8.183869,11778
8.184872,35928
8.185868,35736
8.186872,5825
8.187869,6369
8.188869,13907
8.189869,16532
8.190869,6161
8.191868,5665
8.192869,5857
8.193870,16692
8.194869,12803
8.195870,11458
8.196869,6033
8.197869,5105
8.198869,6321
8.199870,15107
8.200868,5633
8.201871,15059
8.202872,7745
8.203869,9586
8.204867,15507
8.205869,5985
8.206870,10130
8.207867,7201
8.208870,12995
8.209869,21125
8.210867,5777
8.211869,10386
8.212869,7249
8.213869,6273
8.214869,33608
8.215869,5825
8.216869,5505
8.217869,5009
8.218870,8338
8.219870,8962
8.220868,5761
8.221869,6145
8.222869,15731
8.223870,10274
8.224870,12883
8.225867,7857
8.226869,19300
8.227868,10386
8.228871,35544
8.229870,8738
8.230870,7217
8.231869,12194
8.232870,13747
8.233886,7377
8.234875,38665
8.235870,6721
8.236869,11202
8.237869,12323
8.238869,50460
8.239867,8177
8.240870,8129
8.241869,6737
8.242869,10018
8.243869,17572
8.244869,27030
8.245869,9122
8.246868,19732
8.247869,13763
8.248868,5921
8.249869,31767
8.250869,29415
8.251868,16596
8.252870,15107
8.253869,7649
8.254870,20901
8.255871,11490
8.256869,10130
8.257867,8594
8.258869,6977
8.259869,5313
8.260869,22565
8.261869,64575
8.262870,36184
8.263871,5601
8.264869,30727
8.265869,23205
8.266870,19428
8.267870,27990
8.268870,8418
8.269869,33960
8.270869,16339
8.271869,12323
8.272868,5457
8.273869,9890
8.274870,18692
8.275868,6433
8.276869,14403
8.277870,11250
8.278867,12611
8.279869,10162
8.280869,6753
8.281870,10546
8.282869,19844
8.283869,5793
8.284867,21813
8.285868,18628
8.286869,10370
8.287867,9362
8.288868,6289
8.289870,12691
8.290869,9298
8.291870,8242
8.292870,23749
8.293868,6625
8.294869,6833
8.295868,17972
8.296867,39017
8.297882,30519
8.298876,6321
8.299872,9266
8.300867,46603
8.301869,6449
8.302869,7729
8.303869,6033
8.304867,6481
8.305871,5441
8.306869,10210
8.307871,13315
8.308869,17316
8.309869,6225
8.310871,8145
8.311870,7537
8.312869,8578
8.313869,45163
8.314870,14163
8.315871,20116
8.316868,47627
8.317870,20789
8.318868,5425
8.319870,32519
8.320869,10450
8.321869,20388
8.322869,6097
8.323869,7105
8.324871,6145
8.325869,11266
8.326869,15043
8.327868,26806
8.328870,17636
8.329869,16259
8.330869,35000
8.331868,46683
8.332869,7857
8.333869,5521
8.334870,21637
8.335867,9234
8.336868,11426
8.337869,25606
8.338870,16051
8.339870,7633
8.340871,5969
8.341870,7521
8.342869,10482
8.343870,6417
8.344867,7057
8.506909,19764
8.507743,5633
8.508364,11122
8.508955,12467
8.509540,19652
8.510201,24966
8.510784,19620
8.511373,7921
8.511964,7009
8.512571,8802
8.513164,7265
8.513749,5681
8.514341,5089
8.514930,4593
8.515518,13155
8.516108,20613
8.516695,24165
8.517315,14515
8.517908,12162
8.518498,12467
8.519092,8722
8.519867,24485
8.520869,10258
8.521869,12643
8.522869,14371
8.523867,12995
8.524869,5761
8.525869,10338
8.526867,8274
8.527871,5809
8.528871,22501
8.529870,17076
8.530869,22261
8.531868,9730
8.532870,9970
8.533870,47003
8.534869,13491
8.535869,5553
8.536870,28342
8.537870,13443
8.538870,9410
8.539869,20180
8.540871,20677
8.541871,18772
8.542869,23381
8.543871,6545
8.544868,5505
8.545868,19588
8.546869,21333
8.547869,9522
8.548868,10914
8.549869,11138
8.550871,6785
8.551869,13667
8.552868,28230
8.553890,5793
8.554872,7761
8.555869,11650
8.556870,19428
8.557869,59854
8.558868,41642
8.559869,7153
8.560869,15651
8.561868,5905
8.562870,10594
8.563870,14483
8.564870,43914
8.565869,65103
8.566868,10530
8.567870,12835
8.568870,20164
8.569868,39657
8.570867,43802
8.571867,22485
8.572870,9026
8.573869,11410
8.574871,16452
8.575869,8450
8.576869,15091
8.577869,26406
8.578870,24197
8.579870,10530
8.580869,12899
8.581869,39721
8.582870,20388
8.583871,20068
8.584869,6705
8.585869,11218
8.586871,7249
8.587871,11346
8.588869,6513
8.589871,22613
8.590867,12419
8.591868,6497
8.592871,19220
8.593870,17236
8.594870,31175
8.595869,34600
8.596868,21125
8.597871,28630
8.598871,12371
8.599870,30503
8.600871,19348
8.601871,9474
8.602869,28486
8.603868,9746
8.604869,22709
8.605871,30055
8.606869,26550
8.607867,57229
8.608869,59438
8.609868,9666
8.610869,12307
8.611869,20276
8.612869,21333
8.613869,15907
8.614870,21413
8.615871,11746
8.616869,6145
8.617883,25974
8.618874,5329
8.619874,11938
8.620869,16804
8.621869,5809
8.622868,23829
8.623869,6241
8.624870,12355
8.625869,8626
8.626871,14163
8.627869,5297
8.628870,16083
8.629870,6305
8.630872,17412
8.631869,17444
8.632869,11538
8.633869,10674
8.634869,7521
8.635868,5329
8.636870,7121
8.637868,7825
8.638869,20789
8.639871,31415
8.640867,14131
8.641869,24565
8.642869,14467
8.643870,16339
8.644869,13075
8.645866,31287
8.646870,5761
8.647869,12995
8.648869,18196
8.649870,23445
8.650869,8290
8.651867,33896
8.652869,18772
8.653871,11474
8.654870,13475
8.655871,23365
8.656870,35784
8.657868,34616
8.658869,15043
8.659869,22037
8.660869,13811
8.661869,5425
8.662871,12098
8.663869,13571
8.664869,40041
8.665870,34072
8.666869,12595
8.667869,7953
8.668870,5809
8.669870,5873
8.670869,4881
8.671871,6097
8.672868,8770
8.673871,27526
8.674868,9298
8.675871,13331
8.676868,40313
8.677868,17396
8.678870,14675
8.679868,16996
8.680868,10274
8.681887,6913
8.682876,21765
8.683871,46379
8.684871,34280
8.685869,22261
8.686869,8850
8.687871,15587
8.688870,7505
8.689867,9890
8.690870,5921
8.691868,6033
8.692869,8177
8.693868,5265
8.694867,9554
8.695868,5729
8.696869,13587
8.697869,8226
8.815348,6033
8.816371,21413
8.817153,30439
8.817909,36744
8.818652,21845
8.819474,19876
8.820228,60862
8.820975,57293
8.821719,36969
8.822492,8466
8.823244,20677
8.823998,5217
8.824746,12819
8.825500,52364
8.826251,51020
8.827006,8017
8.827756,11346
8.828535,14227
8.829296,8177
8.830050,15939
8.830803,5473
8.831563,6561
8.832320,5793
8.833084,6017
8.833849,33480
8.834605,50556
8.835364,24726
8.836130,5409
8.836890,26182
8.837652,27974
8.838415,15443
8.839181,14675
8.839949,6673
8.840869,11266
8.841870,20661
8.842870,23045
8.843869,21109
8.844868,11650
8.845870,5441
8.846870,14243
8.847869,5569
8.848869,10466
8.849869,34072
8.850868,32936
8.851870,6545
8.852870,6449
8.853870,5377
8.854871,11650
8.855867,5041
8.856869,13555
8.857869,5089
8.858870,5761
8.859870,11986
8.860867,5121
8.861871,38409
8.862868,10722
8.863869,23109
8.864867,8177
8.865869,6433
8.866870,5777
8.867869,10850
8.868868,28711
8.869869,8962
8.870869,36040
8.871870,17796
8.882278,5633
8.882512,7489
8.882726,12210
8.882937,12194
8.883148,10018
8.883359,5649
8.883568,5761
8.883785,7233
8.884004,8914
8.884219,7265
8.884869,20789
8.885868,18276
8.886869,12114
8.887869,14083
8.888869,10322
8.889871,17380
8.890869,6225
8.891870,23109
8.892869,50236
8.893871,21397
8.894867,4497
8.895869,21189
8.896869,7825
8.897869,8097
8.898869,5185
8.899869,8546
8.900867,5281
8.901870,5537
8.902868,15395
8.903869,24037
8.904870,7153
8.905867,19380
8.906870,7553
8.907869,5665
8.908869,5553
8.909869,37481
8.910869,27558
8.911870,8290
8.912870,15459
8.913869,35496
8.914870,18340
8.915869,8177
8.916871,13219
8.917871,10386
8.918868,19220
8.919869,20452
8.920871,9218
8.921867,27142
8.922869,6945
8.923868,8065
8.924869,14851
8.925869,12611
8.926868,27574
8.927868,10338
8.928871,34776
8.929869,38969
8.930869,8466
8.931872,6577
8.932869,56173
8.933871,55885
8.934870,49372
8.935869,15459
8.936867,32103
8.937882,35528
8.938871,20372
8.939870,8177
8.940868,32407
8.941869,13187
8.942869,5841
8.943869,22533
8.944870,17156
8.945868,35032
8.946869,16964
8.947869,8994
8.948869,14563
8.949870,6689
8.950871,10722
8.951867,13891
8.952869,6209
8.953871,7249
8.954871,10274
8.955869,10258
8.956867,8802
8.957869,5841
8.958869,7905
8.959869,4289
8.960870,10978
8.961867,11314
8.962868,15187
8.963869,4689
8.964868,4577
8.965870,36200
8.966867,13971
8.967870,13683
8.968869,14771
8.969868,16516
8.970869,12611
8.971870,9634
8.972871,14227
8.973868,9474
8.974870,10370
8.975868,4641
8.976867,18884
8.977870,22405
8.978869,21925
8.979870,6785
8.980868,8450
8.981871,8514
8.982871,14179
8.983869,12771
8.984871,32087
8.985870,12307
8.986871,6225
8.987869,4689
8.988868,11746
8.989867,5681
8.990869,10498
8.991869,9426
8.992871,12883
8.993869,65535
8.994869,56301
8.995869,8081
8.996870,42506
8.997871,15811
8.998869,5153
8.999868,8081
9.000869,29127
9.001885,22805
9.002876,6065
9.003871,35368
9.004871,8161
9.005871,25350
9.006868,22277
9.007871,5857
9.008870,4945
9.171208,9986
9.171792,4897
9.172175,14483
9.172513,22501
9.172859,26310
9.173266,28246
9.173602,31703
9.173950,22197
9.174295,16772
9.174657,15715
9.175005,4000
9.175342,10402
9.175871,21189
9.176869,37673
9.177871,14723
9.178869,24790
9.179870,61262
9.180871,30807
9.181867,14979
9.182871,7633
9.183870,9858
9.184870,12130
9.185871,12819
9.186869,19524
9.187870,16131
9.188868,5281
9.189868,30823
9.190869,65535
9.191869,58222
9.192869,40921
9.193891,7041
9.194874,51564
9.195869,65535
9.196870,60110
9.197870,6721
9.198870,12643
9.199869,34280
9.200872,5361
9.201868,17172
9.202870,8290
9.203870,5137
9.204871,11442
9.205869,8754
9.206869,15379
9.207870,17204
9.208871,25782
9.209869,24998
9.210869,27238
9.211870,4753
9.212869,45034
9.213869,20885
9.214871,15363
9.215869,29127
9.216871,52588
9.217870,64447
9.218871,16323
9.219870,7905
9.220871,6849
9.221870,10002
9.222869,14291
9.223868,23509
9.224868,31383
9.225869,4369
9.226872,9890
9.227868,11650
9.228870,11170
9.229869,17428
9.230871,9186
9.231869,5057
9.232870,4689
9.233871,19364
9.234868,5713
9.235870,6417
9.236869,14659
9.237868,8450
9.238867,4689
9.239870,8386
9.240871,11058
9.241866,5025
9.242869,5921
9.243870,7329
9.244867,8994
9.245869,4497
9.246871,5089
9.247869,57614
9.248867,7873
9.249869,30631
9.250870,5985
9.251869,7217
9.252871,35208
9.253867,17364
9.254870,14691
9.255871,15155
9.256869,10562
9.257884,8226
9.258871,14979
9.259869,35720
9.260869,14627
9.261867,7457
9.262869,9042
9.263869,18324
9.264868,6113
9.265870,8129
9.266870,6929
9.267871,9010
9.268868,4673
9.269869,13315
9.270869,4433
9.271870,25686
9.272869,28550
9.273869,9666
9.274870,6897
9.275868,10850
9.276869,6113
9.277870,4385
9.278867,4993
9.279869,5937
9.280870,7329
9.281868,5073
9.282869,8594
9.283870,21909
9.284869,11794
9.285868,42074
9.286869,6785
9.287869,8210
9.288871,4705
9.289869,13139
9.290869,37289
9.291868,14355
9.292869,17940
9.293872,15107
9.294868,9394
9.295868,19396
9.296870,31543
9.297869,13123
9.298869,12210
9.299871,6321
9.300870,13795
9.301869,29319
9.302869,16916
9.303870,4545
9.304870,18532
9.305870,6801
9.306871,21125
9.307869,6993
9.308870,12130
9.309870,33896
9.310866,22709
9.311869,18340
9.312867,5249
9.313869,4785
9.314870,13491
9.315869,42826
9.316866,31671
9.317869,5681
9.318871,17812
9.319871,7649
9.320870,10834
9.321880,6305
9.322872,21509
9.323872,20100
9.324867,10498
9.325869,6241
9.326869,30487
9.327868,6129
9.328871,24742
9.329868,5521
9.330870,20853
9.331867,14019
9.332871,4577
9.333869,9042
9.334869,13891
9.335868,12691
9.336868,21029
9.337868,24085
9.338870,24389
9.339868,5713
9.340870,13523
9.341868,12707
9.342869,10450
9.343871,27062
9.344869,28358
9.345870,7185
9.346871,12979
9.347869,8242
9.348869,16259
9.349871,28470
9.350869,21301
9.351870,8097
9.352869,14947
9.353869,7137
9.354870,14899
9.355870,19156
9.356869,13443
9.357871,7569
9.358869,9698
9.359869,7137
9.360870,31303
9.361869,6433
9.362868,12098
9.517253,5249
9.518010,8498
9.518529,5009
9.519033,8145
9.519528,10082
9.520096,20388
9.520587,16275
9.521087,8514
9.521576,6417
9.522089,4737
9.522583,8530
9.523082,10802
9.523575,24710
9.524076,8578
9.524575,7953
9.525076,10258
9.525870,9954
9.526871,16580
9.527871,16612
9.528869,46443
9.529867,5841
9.530871,8290
9.531869,18980
9.532867,5473
9.533868,4417
9.534867,5601
9.535871,6225
9.536871,7249
9.537869,4673
9.538869,5681
9.539869,6721
9.540869,7569
9.541869,4737
9.542869,17220
9.543869,8338
9.544867,11602
9.545871,8898
9.546871,18692
9.547871,9346
9.548868,12419
9.549871,4289
9.550870,5313
9.551868,5825
9.552869,14035
9.553869,9346
9.554869,5313
9.555869,9314
9.556867,12803
9.557870,8642
9.558868,12515
9.559871,12483
9.560870,13459
9.561869,11922
9.562871,15699
9.563871,16708
9.564870,6577
9.565867,4561
9.566870,14851
9.567869,9602
9.568871,21141
9.569869,4945
9.570869,6449
9.571867,5985
9.572869,7649
9.573868,8177
9.574871,4913
9.575871,5281
9.576869,7777
9.577891,13779
9.578875,5217
9.579869,4945
9.580868,9522
9.581870,8514
9.582869,26134
9.583869,10546
9.584869,8530
9.585872,28342
9.586868,8033
9.587869,14163
9.588868,9090
9.589869,4113
9.590870,21893
9.591869,28310
9.592871,18484
9.593871,8065
9.594869,36840
9.595869,9378
9.596868,8258
9.597868,7489
9.598869,23349
9.599868,5825
9.600871,5297
9.601869,4609
9.602869,7457
9.603869,13747
9.604869,9746
9.605868,4801
9.606867,14387
9.607869,12867
9.608871,11570
9.609869,24277
9.610870,31511
9.611869,8177
9.612870,8177
9.613869,10130
9.614869,12050
9.615870,5153
9.616868,7857
9.617869,11074
9.618869,18228
9.619869,13827
9.620868,17508
9.621872,6657
9.622869,17956
9.623871,29751
9.624870,9090
9.625868,43082
9.626869,65535
9.627869,37705
9.628869,18260
9.629869,19588
9.630871,9730
9.631869,9778
9.632869,6769
9.633869,4657
9.634867,8242
9.635869,17940
9.636870,24085
9.637871,18436
9.638871,14179
9.639869,4673
9.640870,4833
9.641881,13523
9.642873,10530
9.643872,31943
9.644868,5153
9.645871,25286
9.646868,12419
9.647870,4801
9.648870,9026
9.649869,5441
9.650868,17860
9.651870,5345
9.652867,4801
9.653869,5585
9.654869,5041
9.655869,9026
9.656870,16388
9.657869,11762
9.658869,6817
9.659870,16564
9.660871,14115
9.661868,15827
9.662869,8466
9.663870,6657
9.664870,31319
9.665869,9554
9.666869,53645
9.667870,14675
9.668867,49308
9.669870,5857
9.670871,21173
9.671871,20533
9.672870,5409
9.673868,6225
9.674869,4689
9.675869,6305
9.676868,4385
9.677869,5889
9.678869,10418
9.679869,8594
9.680869,8145
9.681868,11810
9.682870,9570
9.683868,5921
9.684869,11842
9.685870,14339
9.686868,21845
9.687870,11282
9.688869,7041
9.689870,16420
9.690869,34984
9.691869,25654
9.692869,9282
9.693869,11010
9.694870,5057
9.695869,9698
9.696868,36985
9.697870,6353
9.698869,6481
9.699869,13987
9.700870,29783
9.701869,17956
9.702867,8674
9.703871,7089
9.704869,11826
9.705884,10370
9.706874,6913
9.707867,14803
9.708868,13027
9.858052,7217
9.858955,9826
9.859632,6465
9.860296,9858
9.860950,10274
9.861664,5345
9.862314,6241
9.862964,11474
9.863609,30231
9.864275,39785
9.864924,30679
9.865570,19252
9.866229,9394
9.866878,11538
9.867528,39705
9.868182,31783
9.868836,38809
9.869503,33288
9.870160,21525
9.870809,11570
9.871468,6353
9.872126,13395
9.872869,25622
9.873869,6017
9.874867,5937
9.875868,6641
9.876868,14899
9.877869,14563
9.878870,4881
9.879871,24293
9.880868,17444
9.881868,14563
9.882868,5313
9.883870,11602
9.884869,9010
9.885869,13155
9.886869,12931
9.887868,8674
9.888870,7425
9.889871,11154
9.890869,13443
9.891868,10642
9.892869,10082
9.893870,6417
9.894869,14227
9.895870,11906
9.896869,4801
9.897890,18948
9.898874,16836
9.899872,7921
9.900870,53084
9.901869,24293
9.902871,28855
9.903869,52188
9.904867,23893
9.905870,8626
9.906871,9810
9.907869,7985
9.908870,11602
9.909868,16724
9.910870,11298
9.911867,5569
9.912868,4897
9.913868,6673
9.914868,16035
9.915869,10386
9.916871,11170
9.917869,7905
9.918869,5425
9.919867,12483
9.920871,7953
9.921867,10130
9.922871,6385
9.923868,5089
9.924871,4737
9.925869,19716
9.926872,32535
9.927869,7441
9.928871,25494
9.929868,7265
9.930870,10162
9.931869,7089
9.932869,26630
9.933870,5377
9.934870,8177
9.935867,5057
9.936868,6353
9.937870,4897
9.938866,41338
9.939868,10338
9.940869,12403
9.941871,31895
9.942871,26662
9.943869,13155
9.944871,21525
9.945869,28230
9.946868,27078
9.947868,28743
9.948871,9986
9.949869,33448
9.950871,65535
9.951870,39753
9.952871,34376
9.953871,28759
9.954869,26278
9.955869,5233
9.956871,6641
9.957868,5137
9.958869,8562
9.959869,9922
9.960869,8274
9.961887,8706
9.962871,16452
9.963869,17284
9.964870,15251
9.965870,11298
9.966870,7777
9.967869,10242
9.968870,4689
9.969868,9298
9.970869,5297
9.971869,5345
9.972871,4945
9.973867,6913
9.974870,8177
9.975870,33720
9.976869,10754
9.977869,10082
9.978869,30871
9.979869,10706
9.980871,13219
9.981868,27830
9.982869,5217
9.983870,18964
9.984870,21381
9.985869,8177
9.986869,6785
9.987869,4881
9.988867,9250
9.989872,4753
9.990869,21717
9.991869,29415
9.992869,24565
9.993870,5857
9.994869,4673
9.995868,6657
9.996869,10658
9.997870,10290
9.998868,11282
9.999869,23253
10.000869,11794
10.002617,28006
10.003526,33672
10.004316,13571
10.005065,8177
10.005873,5857
10.006869,10658
10.007870,6625
10.008869,17156
10.009869,17236
10.010869,10882
10.011870,10626
10.012870,27462
10.013870,10018
10.014868,18276
10.015871,25798
10.016869,14899
10.017868,12579
10.018871,15891
10.019867,6929
10.020871,12835
10.021869,8081
10.022869,9490
10.023870,7425
10.024868,46779
10.025890,24662
10.026872,26406
10.027872,7153
10.028868,33688
10.029868,49948
10.030869,27046
10.031868,24565
10.032871,15315
10.033870,6801
10.034871,4977
10.035870,5025
10.036867,5153
10.037869,24517
10.038868,13539
10.039868,17300
10.040869,5713
10.041868,5441
10.042869,4833
10.043869,5937
10.044868,11426
10.045869,23813
10.046868,6721
10.047870,41354
10.048870,33208
10.049869,13635
10.171259,5153
10.172344,5521
10.173195,6577
10.174012,10002
10.174821,17044
10.175708,11314
10.176522,4433
10.177335,9266
10.178149,5233
10.178983,7201
10.179798,6993
10.180619,8898
10.187960,35944
10.188186,31159
10.188407,23141
10.188617,10706
10.188826,6209
10.189055,10114
10.189268,14979
10.189486,13571
10.189703,9874
10.189917,13059
10.190869,22245
10.191867,24614
10.192869,12675
10.193869,5057
10.194871,14563
10.195871,4689
10.196868,28022
10.197868,20565
10.198868,6193
10.199870,19876
10.200870,8017
10.201870,9746
10.202868,6657
10.203870,5297
10.204869,5041
10.205870,26598
10.206872,5329
10.207870,8962
10.208869,5265
10.209870,12194
10.210868,8482
10.211870,6369
10.212868,8354
10.213868,14851
10.214869,7057
10.215869,9282
10.216892,12483
10.217870,10658
10.218872,20613
10.219871,27638
10.220870,6593
10.221869,6689
10.222867,8722
10.223870,14931
10.224870,10562
10.225869,31463
10.226868,6561
10.227871,35128
10.228869,43418
10.229867,5073
10.230869,5761
10.231870,5697
10.232869,6081
10.233870,14723
10.234868,5937
10.235870,9186
10.236869,13139
10.237869,10530
10.238869,7825
10.239870,15155
10.240867,22965
10.241870,5057
10.242870,7569
10.243869,6801
10.244867,8306
10.245870,8418
10.246868,5313
10.247870,8081
10.248869,5377
10.249866,9426
10.250870,11698
10.251869,22021
10.252870,12483
10.253869,21205
10.254870,16468
10.255869,33224
10.256868,28967
10.257869,24902
10.258869,48491
10.259869,25670
10.260869,5185
10.261869,24950
10.262870,18324
10.263867,11938
10.264870,7521
10.265869,16083
10.266870,8001
10.267868,9186
10.268869,34056
10.269867,5521
10.270870,7905
10.271870,8530
10.272871,15523
10.273867,18324
10.274870,6497
10.275871,7649
10.276870,11282
10.277869,22709
10.278869,16564
10.279869,10658
10.280890,6401
10.281877,18852
10.282871,40121
10.283869,18148
10.284869,33208
10.285869,6993
10.286869,24309
10.287869,32519
10.288868,8898
10.289869,22325
10.290871,11186
10.291868,11826
10.292868,13891
10.293871,52444
10.294869,47147
10.295866,10834
10.296868,19844
10.297871,33592
10.298871,5201
10.299868,10770
10.300867,32535
10.301869,18372
10.302868,24565
10.303871,5777
10.304869,17380
10.305867,5969
10.306869,10130
10.307867,29127
10.308869,5777
10.309869,7041
10.310869,7585
10.311870,8642
10.312869,5681
10.313870,6801
10.314869,6737
10.315869,5137
10.316869,5153
10.317869,5889
10.318870,5585
10.319869,4705
10.320870,4881
10.321869,4849
10.322868,8145
10.323870,9634
10.324869,4945
10.325870,4945
10.326869,5793
10.327869,9730
10.328868,5009
10.329869,5169
10.330870,9298
10.331867,6913
10.332869,5473
10.333869,5601
10.334869,7297
10.335870,6977
10.336870,6353
10.337868,5217
10.338868,6945
10.339868,8177
10.340870,8001
10.341866,7009
10.342869,5713
10.343869,6145
10.344886,6577
10.345873,4753
10.346872,4993
10.347870,5361
10.348869,5169
10.349868,6561
10.350870,5857
10.351871,4673
10.352870,4929
10.353870,6193
10.354869,6529
10.355869,14131
10.356870,5537
10.357869,7105
10.358872,4881
10.359869,5345
10.360869,13955
10.361869,5329
10.362870,10786
10.363868,8129
10.364869,5937
10.365869,5169
10.366869,7777
10.367868,4929
10.530014,4961
10.530634,5249
10.531048,7553
10.531427,6769
10.531800,6097
10.532250,5393
10.532624,4913
10.532998,3840
10.533376,5681
10.533774,5073
10.534149,5633
10.534526,7073
10.534908,5457
10.535285,4369
10.535870,5249
10.536867,5713
10.537893,6289
10.538874,5089
10.539873,4657
10.540867,5329
10.541869,6337
10.542871,5169
10.543869,4881
10.544871,8017
10.545871,5921
10.546869,5297
10.547869,4929
10.548867,4993
10.549871,6193
10.550869,5761
10.551869,5553
10.552869,6065
10.553868,5313
10.554869,5009
10.555869,5073
10.556868,5329
10.557869,5857
10.558869,6369
10.559869,5169
10.560868,4817
10.561870,5009
10.562869,5073
10.563869,5441
10.564868,7889
10.565867,9250
10.566870,8930
10.567869,9554
10.568871,6081
10.569869,4881
10.570870,7249
10.571870,5921
10.572868,7345
10.573870,6369
10.574869,5281
10.575870,5121
10.576868,5025
10.577871,5393
10.578869,6097
10.579868,5265
10.580868,5169
10.581872,5505
10.582867,6065
10.583871,4481
10.584869,5345
10.585869,6225
10.586867,5153
10.587869,5553
10.588870,5537
10.589869,5265
10.590869,6625
10.591869,4897
10.592869,6497
10.593871,5169
10.594869,8274
10.595869,6001
10.596867,5137
10.597869,5201
10.598869,5313
10.599870,5041
10.600870,5777
10.601888,5345
10.602876,9874
10.603871,5345
10.604869,5969
10.605870,5425
10.606870,5521
10.607869,5953
10.608868,6433
10.609871,5073
10.610870,5073
10.611870,4993
10.612869,5137
10.613867,6017
10.614870,5121
10.615870,4977
10.616871,5969
10.617870,4897
10.618868,5025
10.619870,5041
10.620870,5633
10.621869,6225
10.622870,5377
10.623871,4833
10.624870,7057
10.625870,5505
10.626867,5249
10.627871,5313
10.628870,5041
10.629870,7377
10.630868,7665
10.631871,5153
10.632871,5505
10.633868,7809
10.634869,6305
10.635869,5137
10.636869,4993
10.637869,5217
10.638868,6609
10.639870,7649
10.640869,4865
10.641869,5073
10.642870,5377
10.643870,5073
10.644870,5681
10.645870,6145
10.646870,5601
10.647869,6257
10.648868,7601
10.649871,5665
10.650868,5313
10.651869,5441
10.652869,7905
10.653869,7681
10.654871,8546
10.655869,5585
10.656866,6081
10.657869,5265
10.658869,5937
10.659869,5841
10.660869,6385
10.661869,6401
10.662869,4833
10.663869,9842
10.664870,6033
10.665884,5569
10.666873,8177
10.667870,5425
10.668869,5889
10.669869,5377
10.670867,4769
10.671872,5425
10.672869,5953
10.673869,7249
10.674869,4865
10.675870,5057
10.676868,8274
10.677869,5137
10.678870,5265
10.679870,6529
10.680868,5297
10.681867,5617
10.682869,5025
10.683868,5041
10.684869,4961
10.685868,4897
10.686868,6465
10.687869,6289
10.688869,6209
10.689871,5169
10.690870,6225
10.691869,6769
10.692869,5937
10.693869,5329
10.694869,8017
10.695869,6705
10.696871,5265
10.697867,6529
10.698870,4769
10.699870,4801
10.700870,5553
10.701868,5985
10.702867,4673
10.703871,5185
10.704872,5441
10.705869,4961
10.706871,4673
10.707870,6753
10.708871,7361
10.709870,7473
10.710867,6017
10.711869,5521
10.712871,5585
10.713869,5729
10.714868,5425
10.715870,5377
10.716868,5729
10.717869,5089
10.718871,7505
10.719870,4865
10.720869,7681
10.881331,5281
10.882126,6657
10.882687,4577
10.883228,4625
10.883756,4497
10.884352,4673
10.884885,4657
10.885416,6993
10.885944,8642
10.886489,7313
10.887025,6993
10.887551,5649
10.888084,5217
10.888613,4641
10.889150,5009
10.889679,4833
10.890213,4273
10.890871,4913
10.891870,6545
10.892870,5009
10.893869,5873
10.894869,5153
10.895869,5713
10.896868,5505
10.897867,5425
10.898869,7265
10.899869,6481
10.900869,4977
10.901871,4913
10.902869,5313
10.903869,5153
10.904869,5377
10.905869,6241
10.906869,5521
10.907871,5217
10.908869,5841
10.909869,5297
10.910870,4545
10.911869,5537
10.912869,5185
10.913869,6833
10.914871,6577
10.915869,7569
10.916869,5185
10.917870,5921
10.918869,5009
10.919867,5553
10.920869,6177
10.921889,5489
10.922869,6145
10.923870,5969
10.924867,5809
10.925869,6305
10.926869,4753
10.927871,5105
10.928868,5985
10.929871,5153
10.930869,5041
10.931868,6593
10.932870,6305
10.933869,5713
10.934869,4961
10.935868,5345
10.936869,5713
10.937869,6033
10.938870,5601
10.939869,5793
10.940871,5681
10.941869,5905
10.942869,4865
10.943871,5825
10.944868,6065
10.945868,5681
10.946869,5137
10.947868,9026
10.948870,8177
10.949869,6545
10.950869,5425
10.951871,5137
10.952868,6417
10.953867,7745
10.954870,7073
10.955867,6257
10.956871,7201
10.957869,6449
10.958868,4993
10.959869,6961
10.960867,5569
10.961870,5361
10.962869,5745
10.963870,5089
10.964871,5409
10.965869,6913
10.966869,5937
10.967867,4977
10.968869,5329
10.969869,5217
10.970870,5249
10.971870,5217
10.972870,6305
10.973869,6353
10.974867,4881
10.975869,6433
10.976870,5297
10.977868,6289
10.978869,5601
10.979869,5009
10.980870,7329
10.981870,5809
10.982869,5441
10.983870,6257
10.984870,5329
10.985889,4625
10.986877,4561
10.987869,4993
10.988867,5393
10.989868,5569
10.990868,5361
10.991869,5265
10.992869,6417
10.993868,5441
10.994868,5425
10.995867,6145
10.996870,4673
10.997869,6145
10.998870,6913
10.999868,6801
11.000868,5537
11.001871,5809
11.002871,6577
11.003868,5137
11.004870,4945
11.005869,5297
11.006868,7953
11.007871,6913
11.008869,5121
11.009869,6241
11.010869,7057
11.011867,6449
11.012868,5153
11.013869,5073
11.014869,5345
11.015869,5569
11.016868,6273
11.017867,5057
11.018870,5905
11.019869,5153
11.020869,5505
11.021869,7313
11.022869,5473
11.023869,5409
11.024869,5425
11.025869,7601
11.026869,7601
11.027867,5345
11.028867,5377
11.029869,5809
11.030869,5457
11.031868,5729
11.032869,5297
11.033870,6145
11.034871,6145
11.035869,5105
11.036868,4961
11.037870,5505
11.038867,4945
11.039870,6705
11.040871,5137
11.041870,6497
11.042869,7105
11.043870,6081
11.044870,6321
11.045869,5713
11.046869,5153
11.047867,5473
11.048869,5073
11.049886,4945
11.050872,7137
11.051871,6001
11.052868,6641
11.053867,5265
11.054869,4897
11.055867,5521
11.056869,5921
11.057869,5137
11.058869,5217
11.059868,5873
11.060869,5345
11.061867,5025
11.062869,6465
11.063870,5345
11.064868,5425
11.065869,6577
11.066872,5729
11.067871,5313
11.068869,5169
11.069869,5249
11.070871,4625
11.071868,5681
11.072871,6753
11.220125,6673
11.221070,5809
11.221781,4545
11.222467,4161
11.223151,4609
11.223902,4737
11.224584,4481
11.225265,4529
11.225955,5505
11.226655,4337
11.227344,5633
11.228031,6705
11.228713,6369
11.229400,5841
11.230092,5553
11.230784,4193
11.231469,6609
11.232179,5889
11.232867,5697
11.233551,5681
11.234241,5729
11.234932,6593
11.235622,6721
11.236313,4657
11.237006,4161
11.237870,5409
11.238870,5217
11.239867,4129
11.240889,5617
11.241872,6385
11.242869,5457
11.243871,6961
11.244869,5537
11.245869,5649
11.246870,4961
11.247868,5585
11.248870,6465
11.249869,7889
11.250868,5089
11.251871,5505
11.252867,6561
11.253869,5505
11.254869,5953
11.255872,5297
11.256869,5361
11.257869,4929
11.258870,5393
11.259872,5521
11.260871,5633
11.261871,5409
11.262870,4689
11.263868,4945
11.264870,5729
11.265869,7361
11.266869,5169
11.267867,4289
11.268869,5089
11.269868,5425
11.270870,5329
11.271871,6961
11.272868,5537
11.273868,5681
11.274870,5057
11.275869,5313
11.276869,4865
11.277869,4817
11.278870,7905
11.279869,5633
11.280871,5041
11.281868,6305
11.282870,6721
11.283869,6497
11.284869,6369
11.285869,6049
11.286870,5393
11.287868,5825
11.288870,5153
11.289869,4865
11.290869,5009
11.291869,5281
11.292869,6593
11.293867,7009
11.294871,4145
11.295869,4897
11.296870,5185
11.297869,4705
11.298870,7697
11.299866,5025
11.300870,6241
11.301869,5793
11.302869,5809
11.303871,6065
11.304888,5009
11.305869,5153
11.306870,5137
11.307867,5073
11.308870,6913
11.309867,4529
11.310869,5089
11.311870,5889
11.312871,5185
11.313866,3808
11.314869,5137
11.315869,6465
11.316870,5889
11.317870,6145
11.318870,5681
11.319869,5921
11.320869,4945
11.321870,4673
11.322869,5265
11.323869,5377
11.324867,5281
11.325870,4929
11.326869,4497
11.327866,5937
11.328870,5281
11.329867,6449
11.330870,5857
11.331868,5121
11.332869,5281
11.333868,5217
11.334869,6017
11.335869,6481
11.336868,4561
11.337869,6001
11.338872,5121
11.339867,5873
11.340868,5153
11.341869,4657
11.342869,4193
11.343869,4225
11.344869,7041
11.345867,6033
11.346869,6097
11.347869,6289
11.348870,6753
11.349869,4785
11.350871,5425
11.351867,3936
11.352869,5633
11.353869,9650
11.354869,6993
11.355870,8914
11.356870,7121
11.357867,5409
11.358869,4385
11.359870,4817
11.360869,5713
11.361870,5569
11.362869,4048
11.363870,5185
11.364870,5345
11.365868,4225
11.366870,6673
11.367869,5633
11.368883,5313
11.369881,6433
11.370870,5825
11.371869,4369
11.372871,5185
11.373868,4369
11.374869,5217
11.375871,5201
11.376871,5345
11.377870,5313
11.378870,4945
11.379868,5553
11.380870,5441
11.381867,4785
11.382870,5617
11.383869,5265
11.384870,5585
11.385870,5393
11.386871,5921
11.387870,5585
11.388868,5265
11.389869,6161
11.390868,5297
11.391870,5025
11.392870,5025
11.393870,5553
11.394869,5329
11.395871,4961
11.396869,5969
11.397868,6033
11.398869,5297
11.399871,4993
11.400870,4929
11.401871,4881
11.402867,3936
11.403871,5169
11.404867,6193
11.405870,6625
11.406870,6177
11.407868,6049
11.408867,5473
11.409869,4321
11.410869,4577
11.411871,5649
11.530288,5457
11.530780,5377
11.531077,5105
11.531322,5073
11.531567,4513
11.531841,4737
11.532086,4881
11.532326,5665
11.532568,5537
11.532838,5873
11.533079,6465
11.533867,4769
11.534871,3808
11.535871,5585
11.536870,5969
11.537869,4289
11.538871,5137
11.539869,5393
11.540870,6273
11.541870,5041
11.542868,4241
11.543867,3936
11.544869,4577
11.545871,4193
11.546869,4337
11.547869,4881
11.548869,4385
11.549869,5681
11.550871,5121
11.551868,4449
11.552870,4561
11.553869,3888
11.554870,5809
11.555869,3840
11.556871,4225
11.557870,4113
11.558870,5649
11.559871,4241
11.560868,3984
11.561894,4353
11.562876,6417
11.563871,5409
11.564871,5985
11.565867,5185
11.566868,5393
11.567868,4657
11.568867,3968
11.569869,4161
11.570871,5009
11.571869,4513
11.572868,5457
11.573869,5057
11.574870,5009
11.575868,4737
11.576869,4129
11.577869,3680
11.578869,6017
11.579869,4545
11.580868,4529
11.581868,3968
11.582870,5569
11.583869,5073
11.584870,4769
11.585868,4481
11.586872,4913
11.587870,4401
11.588870,4177
11.589868,4064
11.590871,4000
11.591869,6081
11.592871,6177
11.593867,5329
11.594871,4465
11.595870,4241
11.596869,4161
11.597869,4673
11.598869,4177
11.599867,3760
11.600867,4193
11.601871,5153
11.602870,7777
11.603869,5153
11.604867,4113
11.605869,3808
11.606870,5281
11.607870,4145
11.608869,3856
11.609867,4609
11.610869,4609
11.611868,3760
11.612869,4097
11.613867,4321
11.614870,5041
11.615867,4609
11.616869,5969
11.617869,5153
11.618868,5633
11.619868,4529
11.620869,4177
11.621867,4097
11.622870,3968
11.623869,4417
11.624867,3632
11.625887,4145
11.626876,5169
11.627868,3744
11.628871,5153
11.629869,6545
11.630867,4561
11.631868,3776
11.632867,7713
11.633868,8145
11.634869,7953
11.635868,5409
11.636869,4032
11.637870,4929
11.638869,4145
11.639869,5265
11.640868,5185
11.641870,4577
11.642869,4577
11.643870,4129
11.644867,4177
11.645870,7937
11.646868,4929
11.647870,3808
11.648869,7393
11.649869,5729
11.650872,3936
11.651869,4016
11.652871,3936
11.653869,3952
11.654869,4529
11.655869,4497
11.656871,4193
11.657869,6081
11.658869,4193
11.659869,4000
11.660868,4064
11.661868,5121
11.662867,4801
11.663869,4321
11.664869,5297
11.665871,4913
11.666870,4145
11.667867,3936
11.668869,3968
11.669867,4721
11.670869,4881
11.671871,4369
11.672867,4385
11.673869,6401
11.674868,4433
11.675867,5665
11.676869,4097
11.677869,4000
11.678870,6161
11.679869,3920
11.680869,4016
11.681867,4865
11.682870,5393
11.683869,4897
11.684868,5217
11.685871,4753
11.686870,5169
11.687870,5345
11.688868,4321
11.689886,5969
11.690876,6193
11.691869,4769
11.692867,4321
11.693869,4465
11.694869,6209
11.695869,4561
11.696867,4305
11.697870,3584
11.698867,4032
11.699869,5793
11.700870,3664
11.701870,6097
11.702868,5921
11.703871,3808
11.704868,3872
11.705869,4016
11.706869,4641
11.707869,7249
11.708870,4609
11.709869,3952
11.710870,5201
11.711869,4753
11.712866,4064
11.713869,4000
11.714869,4225
11.715869,5985
11.716870,5617
11.717868,6145
11.718872,4080
11.719870,5281
11.720868,3840
11.721871,4561
11.880310,5457
11.880972,5153
11.881397,5585
11.881957,5537
11.882364,4561
11.882824,4257
11.883226,4705
11.883621,3648
11.884020,3472
11.884430,4913
11.884828,5425
11.885228,5313
11.885624,4753
11.886025,5185
11.886869,5441
11.887867,4241
11.888868,3920
11.889870,4929
11.890868,5873
11.891867,4305
11.892872,4913
11.893869,4593
11.894869,4481
11.895870,5793
11.896870,4369
11.897870,3936
11.898870,3840
11.899869,4353
11.900869,6817
11.901870,5105
11.902870,5009
11.903869,4689
11.904870,5809
11.905870,4433
11.906869,4000
11.907869,4673
11.908870,4785
11.909870,4657
11.910868,4545
11.911870,4064
11.912868,5201
11.913869,4305
11.914867,4561
11.915869,6113
11.916868,4257
11.917871,4609
11.918869,4305
11.919870,4113
11.920869,4257
11.921870,3792
11.922869,4577
11.923870,4993
11.924869,6337
11.925870,4609
11.926868,4369
11.927869,4529
11.928869,5073
11.929869,4801
11.930871,3968
11.931871,4961
11.932869,4497
11.933870,4097
11.934869,4625
11.935871,5489
11.936869,4193
11.937870,5009
11.938868,4641
11.939870,4529
11.940869,4513
11.941868,4417
11.942869,5425
11.943869,5777
11.944869,5361
11.945880,5249
11.946877,5057
11.947870,3840
11.948868,4417
11.949869,5329
11.950870,4305
11.951869,3872
11.952870,3792
11.953868,4097
11.954869,4513
11.955871,4497
11.956871,5505
11.957869,4497
11.958869,4545
11.959868,5649
11.960870,5569
11.961866,4817
11.962870,4529
11.963868,4113
11.964870,4080
11.965871,4417
11.966869,4401
11.967869,4257
11.968870,6833
11.969870,4945
11.970869,3968
11.971866,3872
11.972870,4113
11.973868,4321
11.974867,4369
11.975869,5809
11.976871,4321
11.977867,4241
11.978869,4657
11.979870,5345
11.980869,4097
11.981868,4241
11.982867,4561
11.983869,4417
11.984870,5313
11.985867,5329
11.986870,5073
11.987871,5217
11.988870,4641
11.989868,4000
11.990869,4321
11.991866,5377
11.992869,6177
11.993868,4417
11.994870,4321
11.995871,4897
11.996870,4433
11.997870,4513
11.998869,4689
11.999868,4993
12.000868,4641
12.001869,4561
12.002868,4113
12.003872,4129
12.004870,6065
12.005871,4625
12.006869,4449
12.007868,5729
12.008870,4369
12.009886,4737
12.010876,4177
12.011869,4657
12.012869,4849
12.013869,5057
12.014867,6977
12.015868,4401
12.016871,4913
12.017870,4801
12.018868,4673
12.019870,4000
12.020869,4785
12.021868,5361
12.022868,4481
12.023870,4337
12.024870,4401
12.025869,4561
12.026869,4241
12.027869,5457
12.028867,5025
12.029869,5041
12.030869,4977
12.031868,4929
12.032868,5201
12.033867,4305
12.034869,4177
12.035872,3648
12.036868,4177
12.037869,4048
12.038869,4113
12.039868,4881
12.040870,7569
12.041869,6145
12.042870,5553
12.043871,5409
12.044867,4673
12.045870,4865
12.046869,4273
12.047868,4801
12.048867,6177
12.049869,6353
12.050869,3872
12.051868,4225
12.052869,4257
12.053867,4241
12.054871,4016
12.055868,3776
12.056871,4193
12.057870,4913
12.058869,4353
12.059868,4929
12.060871,4961
12.061869,4289
12.062869,6449
12.063868,6657
12.064869,4433
12.065869,4241
12.066869,3824
12.067869,5521
12.068871,4097
12.069869,4753
12.070869,9506
12.071869,6145
12.228121,5521
12.228937,5345
12.229530,5537
12.230091,5633
12.230643,5425
12.231259,5089
12.231805,4945
12.232358,5377
12.232911,5617
12.233481,6001
12.234031,4881
12.234585,5057
12.235139,4801
12.235689,4993
12.236245,4737
12.236795,5505
12.237354,5889
12.237929,5905
12.238869,5185
12.239869,4785
12.240870,4353
12.241870,4193
12.242871,5633
12.243869,5201
12.244868,5665
12.245870,5313
12.246870,4561
12.247869,4129
12.248869,4225
12.249871,4161
12.250870,4064
12.251870,5809
12.252869,5825
12.253870,4064
12.254869,5329
12.255869,5825
12.256868,5521
12.257870,4417
12.258869,6977
12.259870,7025
12.260871,6145
12.261867,4497
12.262868,4305
12.263868,4833
12.264954,4865
12.265875,4593
12.266870,4048
12.267868,4977
12.268869,4753
12.269868,4337
12.270869,5201
12.271869,6433
12.272869,4769
12.273870,4353
12.274869,3904
12.275868,4497
12.276869,4833
12.277868,4161
12.278872,6225
12.279869,5393
12.280868,4593
12.281869,4897
12.282867,4689
12.283869,4417
12.284869,4305
12.285869,4064
12.286871,5089
12.287869,4417
12.288869,4609
12.289869,5057
12.290867,5441
12.291868,4289
12.292870,4369
12.293868,4433
12.294868,4177
12.295870,5585
12.296869,5281
12.297868,4257
12.298869,4641
12.299869,5441
12.300871,4817
12.301869,4689
12.302868,4513
12.303869,4545
12.304870,5953
12.305869,4529
12.306870,4289
12.307869,4241
12.308871,4353
12.309869,4913
12.310869,4881
12.311868,4785
12.312868,5153
12.313869,4737
12.314870,4449
12.315871,4353
12.316869,4000
12.317869,3984
12.318868,5441
12.319869,4769
12.320870,4561
12.321871,4161
12.322870,4048
12.323869,4513
12.324869,4433
12.325870,6465
12.326869,5057
12.327870,4161
12.328906,3984
12.329886,5217
12.330871,6337
12.331870,5425
12.332870,4577
12.333872,3984
12.334872,6449
12.335869,4561
12.336871,4577
12.337869,5137
12.338869,5329
12.339869,4561
12.340869,5361
12.341869,4833
12.342869,4833
12.343870,4417
12.344869,4993
12.345869,4913
12.346870,4625
12.347870,4161
12.348870,4609
12.349868,4241
12.350869,4785
12.351869,4737
12.352870,4785
12.353870,5009
12.354871,4497
12.355869,4145
12.356868,4289
12.357868,4225
12.358870,4433
12.359868,5425
12.360867,4833
12.361871,4673
12.362870,5201
12.363868,6209
12.364869,4689
12.365870,4769
12.366870,5329
12.367869,4513
12.368868,4817
12.369869,4225
12.370869,4305
12.371871,4753
12.372869,4689
12.373868,4497
12.374871,4177
12.375869,3840
12.376871,5793
12.377871,4801
12.378870,4961
12.379871,4865
12.380869,4225
12.381869,4497
12.382869,5025
12.383871,4193
12.384868,4865
12.385871,4593
12.386869,4529
12.387869,6177
12.388870,5601
12.389868,4481
12.390871,5905
12.391870,5841
12.392867,4801
12.393886,5329
12.394879,4737
12.395873,4369
12.396870,5825
12.397867,4737
12.398870,4641
12.399868,4401
12.400870,4161
12.401871,4625
12.402869,4353
12.403868,7345
12.404870,5825
12.405869,4161
12.406870,4833
12.407869,5169
12.408870,4545
12.409869,5665
12.410870,5601
12.411869,4817
12.412870,4945
12.413871,4145
12.414871,5361
12.415867,5553
12.416867,4625
12.417868,4113
12.418870,5217
12.419869,4497
12.615241,4129
12.616205,5953
12.616943,6033
12.617651,4865
12.618370,4417
12.619157,4529
12.619868,5425
12.620579,6897
12.621290,6017
12.622014,4641
12.622724,4785
12.623435,6065
12.624149,5697
12.624862,5793
12.625572,4833
12.626292,4753
12.627004,4257
12.627734,5217
12.628448,3984
12.629166,5409
12.629885,5393
12.630604,3904
12.631324,4401
12.632047,6833
12.632767,7137
12.633491,5857
12.634214,5761
12.634936,6193
12.635868,6545
12.636869,6193
12.637869,4913
12.638868,4833
12.639869,4401
12.640867,5457
12.641867,4913
12.642871,4337
12.643871,4577
12.644869,5297
12.645869,4305
12.646868,4433
12.647869,6545
12.648869,4529
12.649892,4817
12.650874,5361
12.651871,4257
12.652869,4945
12.653870,4513
12.654868,5809
12.655869,4481
12.656870,4513
12.657868,5297
12.658870,5329
12.659870,5137
12.660869,4513
12.661869,5697
12.662869,5169
12.663870,4561
12.664867,4641
12.665868,5169
12.666868,5009
12.667871,4625
12.668869,5921
12.669869,5537
12.670869,5137
12.671870,4769
12.672870,4785
12.673869,5153
12.674871,5313
12.675868,5841
12.676871,4817
12.677869,5265
12.678870,4657
12.679868,4881
12.680869,4961
12.681866,5009
12.682869,4433
12.683869,4481
12.684870,4545
12.685869,4673
12.686869,5153
12.687869,4577
12.688869,4769
12.689869,5521
12.690870,5393
12.691869,7313
12.692868,6817
12.693870,5345
12.694867,5505
12.695868,4497
12.696869,4625
12.697870,4545
12.698867,4929
12.699868,5281
12.700869,4080
12.701868,4753
12.702868,5905
12.703869,5249
12.704869,4657
12.705869,4817
12.706869,5329
12.707868,6417
12.708869,5569
12.709870,5281
12.710869,4497
12.711870,4561
12.712886,5009
12.713877,6017
12.714872,4529
12.715870,4369
12.716869,4481
12.717868,5473
12.718867,5265
12.719868,4769
12.720868,5905
12.721868,5265
12.722869,4449
12.723871,5873
12.724869,4817
12.725870,5265
12.726869,6401
12.727868,4865
12.728869,6961
12.729869,4433
12.730869,4545
12.731871,7089
12.732868,6593
12.733868,6145
12.734867,5505
12.735871,5073
12.736867,5473
12.737870,4737
12.738868,5057
12.739871,4273
12.740869,6193
12.741867,6049
12.742868,5377
12.743869,4865
12.744869,5121
12.745869,4449
12.746870,4497
12.747869,5025
12.748870,4529
12.749868,4625
12.750871,5409
12.751872,4481
12.752870,5409
12.753869,5553
12.754869,4913
12.755869,5441
12.756869,5217
12.757870,4497
12.758868,5505
12.759870,5265
12.760868,6081
12.761867,4913
12.762869,4577
12.763869,5201
12.764870,4833
12.765868,5281
12.766867,5393
12.767868,4673
12.768869,4849
12.769870,5089
12.780611,5377
12.780879,5553
12.781109,6049
12.781322,5217
12.781535,5521
12.781751,4449
12.781965,5249
12.782177,5553
12.782395,5905
12.782616,6289
12.782869,6177
12.783868,5025
12.784869,4929
12.785869,4593
12.786870,4529
12.787869,5665
12.788869,4961
12.789871,4385
12.790868,5777
12.791867,5329
12.792870,4833
12.793869,5457
12.794869,5009
12.795870,4897
12.796869,4945
12.797868,4625
12.798869,5137
12.799867,4673
12.800869,4497
12.801869,4513
12.802870,4705
12.803869,6321
12.804869,5377
12.805870,6049
12.806870,5297
12.807869,4561
12.808869,4433
12.918472,5249
12.919028,5569
12.919341,5121
12.919637,5089
12.919927,4529
12.920280,5425
12.920566,5585
12.920859,4193
12.921149,4193
12.921451,4145
12.921737,4897
12.922033,4225
12.922871,4961
12.923869,5649
12.924868,5185
12.925869,4945
12.926871,5505
12.927870,4529
12.928869,4657
12.929869,4881
12.930867,5041
12.931867,4769
12.932871,4769
12.933871,5713
12.934869,4993
12.935869,5089
12.936870,4641
12.937871,4673
12.938869,5825
12.939869,5201
12.940869,4881
12.941871,6737
12.942870,5665
12.943869,4929
12.944867,5137
12.945869,5441
12.946869,4961
12.947869,4497
12.948870,5969
12.949870,6401
12.950868,7169
12.951870,5281
12.952870,4961
12.953870,4737
12.954869,4817
12.955871,4353
12.956869,4833
12.957868,4961
12.958869,6145
12.959869,5217
12.960868,6785
12.961868,5521
12.962869,4737
12.963868,4737
12.964870,4353
12.965868,5793
12.966868,5009
12.967869,5329
12.968870,5009
12.969888,5137
12.970873,4609
12.971869,4833
12.972869,4689
12.973868,5697
12.974869,5553
12.975871,5281
12.976870,5521
12.977869,5489
12.978869,5937
12.979868,4833
12.980867,5185
12.981871,6273
12.982870,5121
12.983869,4801
12.984868,5121
12.985870,4737
12.986868,4993
12.987869,5633
12.988869,5041
12.989869,4769
12.990869,5073
12.991869,5073
12.992869,4977
12.993870,5585
12.994871,4945
12.995869,4833
12.996869,5089
12.997870,5553
12.998871,6225
12.999869,4721
13.000869,5281
13.001869,4737
13.002870,4977
13.003869,4817
13.004869,5057
13.005871,4529
13.006870,4881
13.007871,5185
13.008871,4609
13.009867,5377
13.010869,5633
13.011868,6561
13.012871,6065
13.013872,4753
13.014868,4705
13.015870,4705
13.016869,5153
13.017868,5153
13.018871,4561
13.019870,4545
13.020869,4593
13.021869,5713
13.022870,6401
13.023869,6321
13.024869,5249
13.025870,4897
13.026869,5249
13.027868,5393
13.028868,5729
13.029869,5121
13.030868,5041
13.031871,5601
13.032868,4785
13.033881,4865
13.034875,4433
13.035869,5041
13.036870,4881
13.037867,5153
13.038868,5841
13.039869,6065
13.040869,5041
13.041869,4897
13.042869,4769
13.043867,5601
13.044867,4913
13.045869,5137
13.046867,4689
13.047870,5313
13.048870,6961
13.049868,6241
13.050870,4961
13.051869,5137
13.052871,4737
13.053872,4801
13.054871,5185
13.055868,5121
13.056871,5761
13.057869,5841
13.058869,5441
13.059869,5041
13.060869,4849
13.061867,5777
13.062871,4929
13.063869,5329
13.064869,5073
13.065869,4769
13.066869,5985
13.067870,5281
13.068869,4961
13.069869,5073
13.070871,5041
13.071871,5329
13.072869,6065
13.073870,4817
13.074869,6225
13.075869,5985
13.076867,5729
13.077869,5185
13.078871,5009
13.079869,5169
13.080871,5265
13.081869,5601
13.082868,5825
13.083869,5521
13.084868,5505
13.085870,4785
13.086869,4881
13.087869,5073
13.088870,4929
13.089868,5521
13.090869,5249
13.091869,5393
13.092869,5409
13.093870,4993
13.094870,5393
13.095869,5409
13.096870,5313
13.097884,5185
13.098873,4929
13.099869,5249
13.100869,5009
13.101868,6033
13.102867,5809
13.103869,5025
13.104869,4737
13.105871,5377
13.106870,5265
13.107871,4753
13.108869,4977
13.109871,5505
13.269654,6433
13.270370,6305
13.270856,4561
13.271310,4113
13.271754,4209
13.272269,4785
13.272712,4945
13.273151,6033
13.273592,6337
13.274054,6049
13.274498,5009
13.274944,5281
13.275391,5137
13.275838,3936
13.276282,4225
13.276871,6737
13.277869,6337
13.278869,4609
13.279869,4833
13.280869,5249
13.281870,4801
13.282867,5169
13.283870,5281
13.284870,4961
13.285866,5249
13.286868,5345
13.287868,5697
13.288868,5169
13.289895,5617
13.290873,4865
13.291871,5313
13.292870,5313
13.293870,5441
13.294870,5249
13.295869,4993
13.296869,6225
13.297868,5249
13.298869,5953
13.299867,6657
13.300868,5841
13.301869,7329
13.302868,4929
13.303869,5809
13.304869,6753
13.305868,5217
13.306868,4897
13.307870,4561
13.308869,5121
13.309870,5425
13.310869,4625
13.311871,5585
13.312869,5569
13.313871,5057
13.314872,5185
13.315869,5073
13.316868,5025
13.317869,4913
13.318868,7009
13.319869,6145
13.320871,5121
13.321867,5937
13.322869,6081
13.323869,5825
13.324867,5473
13.325869,5649
13.326869,4737
13.327867,4913
13.328870,5729
13.329869,5249
13.330870,5377
13.331869,4817
13.332869,5505
13.333870,4673
13.334869,5073
13.335870,6097
13.336869,5601
13.337869,5313
13.338867,7601
13.339870,6241
13.340870,4833
13.341870,5057
13.342868,4849
13.343870,5153
13.344868,4913
13.345868,5249
13.346869,5857
13.347867,5329
13.348869,5137
13.349869,5329
13.350869,5201
13.351868,5329
13.352870,5345
13.353885,4177
13.354876,5393
13.355870,5169
13.356867,4961
13.357869,5793
13.358867,5761
13.359868,6801
13.360868,5697
13.361869,5089
13.362869,5217
13.363867,4881
13.364870,5073
13.365867,5681
13.366869,5793
13.367869,5425
13.368869,6721
13.369871,5681
13.370869,5393
13.371870,5473
13.372867,5377
13.373870,4993
13.374869,4801
13.375868,4833
13.376870,4961
13.377870,5057
13.378869,5377
13.379869,5697
13.380869,5601
13.381869,6705
13.382869,5617
13.383869,4753
13.384870,5393
13.385869,5649
13.386869,5393
13.387869,5185
13.388868,5073
13.389869,5585
13.390872,5729
13.391869,6177
13.392870,4961
13.393866,4881
13.394869,5105
13.395871,5617
13.396869,6913
13.397869,5265
13.398867,5169
13.399867,5185
13.400869,6433
13.401869,4929
13.402871,5793
13.403871,5265
13.404870,4753
13.405871,5009
13.406869,5713
13.407869,5617
13.408870,6113
13.409870,5953
13.410868,5425
13.411870,5681
13.412869,5233
13.413869,5601
13.414867,5569
13.415867,5713
13.416870,5393
13.417885,4353
13.418878,6049
13.419874,5537
13.420870,4977
13.421872,4593
13.422870,4993
13.423871,5009
13.424870,6177
13.425871,7441
13.426868,6433
13.427870,5681
13.428869,5521
13.429869,5345
13.430871,5457
13.431869,5889
13.432868,5521
13.433869,5169
13.434869,5345
13.435869,5681
13.436870,5889
13.437869,4881
13.438870,5057
13.439869,5297
13.440870,5185
13.441871,5649
13.442871,5585
13.443871,5281
13.444871,5633
13.445870,5169
13.446870,5265
13.447868,5041
13.448868,6449
13.449872,5633
13.450869,5105
13.451868,6177
13.452869,5713
13.453870,5009
13.454868,4449
13.455870,5265
13.456869,5041
13.457869,6145
13.458868,5713
13.459869,5777
13.460867,5553
13.620048,4689
13.620890,6161
13.621523,5905
13.622132,5057
13.622726,5409
13.623392,4625
13.623987,4529
13.624583,4273
13.625182,4993
13.625795,6273
13.626393,5585
13.626991,4609
13.627584,4449
13.628187,4961
13.628786,5041
13.629386,4865
13.629991,5057
13.630609,5281
13.631209,4529
13.631808,4881
13.632409,4833
13.633015,5137
13.633871,5409
13.634869,5537
13.635870,5537
13.636869,4929
13.637870,5457
13.638869,5633
13.639871,4817
13.640870,5009
13.641870,5953
13.642869,5761
13.643869,5521
13.644870,5297
13.645869,4865
13.646870,4801
13.647869,5777
13.648869,5937
13.649867,5681
13.650869,5073
13.651868,5089
13.652869,5153
13.653870,6321
13.654871,6321
13.655870,5329
13.656868,5009
13.657867,4369
13.658871,5889
13.659871,5601
13.660869,5009
13.661869,5313
13.662869,4577
13.663869,5377
13.664869,4689
13.665868,6385
13.666868,5569
13.667868,5809
13.668867,5361
13.669870,5025
13.670870,4897
13.671870,6305
13.672869,5553
13.673888,6465
13.674873,6625
13.675870,6049
13.676871,5921
13.677871,5409
13.678871,5025
13.679869,5185
13.680869,4961
13.681869,5713
13.682870,5361
13.683868,4545
13.684867,4801
13.685868,5153
13.686870,6801
13.687870,5793
13.688869,5121
13.689869,6033
13.690868,5745
13.691869,6065
13.692869,5569
13.693868,5505
13.694870,4913
13.695869,5185
13.696871,5505
13.697870,4961
13.698869,5105
13.699871,5601
13.700870,5457
13.701869,6145
13.702870,5889
13.703868,5473
13.704869,5041
13.705869,5009
13.706869,5409
13.707869,5793
13.708871,5217
13.709868,5761
13.710869,5329
13.711870,5857
13.712870,5217
13.713868,5809
13.714867,3712
13.715869,6305
13.716869,6417
13.717869,5953
13.718867,4289
13.719871,4865
13.720871,6145
13.721868,6369
13.722871,5601
13.723870,5729
13.724868,5201
13.725870,5121
13.726868,5921
13.727870,7809
13.728870,5297
13.729869,4929
13.730869,4897
13.731869,5185
13.732870,5777
13.733872,5729
13.734870,5777
13.735869,4801
13.736869,4945
13.737888,6001
13.738875,5457
13.739870,5697
13.740871,5841
13.741869,5041
13.742870,4000
13.743869,4801
13.744867,4097
13.745869,5009
13.746867,4513
13.747870,6705
13.748869,6097
13.749868,4577
13.750870,5761
13.751867,4641
13.752871,5329
13.753868,4321
13.754871,5041
13.755869,5377
13.756870,5889
13.757868,4993
13.758870,4401
13.759870,5121
13.760867,3504
13.761868,5025
13.762869,5809
13.763870,6609
13.764869,5473
13.765869,5137
13.766871,5441
13.767871,5393
13.768869,5985
13.769870,5617
13.770867,5521
13.771870,5649
13.772869,5505
13.773872,6081
13.774868,4433
13.775867,3920
13.776869,4849
13.777870,5345
13.778871,5025
13.779870,5921
13.780870,6049
13.781870,5825
13.782869,4881
13.783869,4641
13.784869,4433
13.785870,6449
13.786871,6561
13.787869,6529
13.788871,4705
13.789870,4897
13.790869,3968
13.791868,4865
13.792870,4897
13.793870,5393
13.794869,4769
13.795869,5057
13.796870,6609
13.797869,5425
13.798871,5297
13.799869,5729
13.800869,5345
13.801885,4497
13.802873,5089
13.803870,4913
13.804869,6465
13.805868,4577
13.806866,5601
13.807869,6209
13.808868,4449
13.809871,5937
13.810867,4193
13.932943,6785
13.933963,5377
13.934750,4433
13.935518,4161
13.936277,5649
13.937110,6721
13.937867,5873
13.938619,5489
13.939379,5761
13.940159,5425
13.940918,4080
13.941675,5057
13.942436,4481
13.943199,5185
13.943955,6081
13.944715,4689
13.945479,4737
13.946266,4000
13.947031,3600
13.947789,5889
13.948555,5425
13.949324,5921
13.950093,6593
13.950861,4753
13.951622,5265
13.952392,4625
13.953160,5169
13.953928,5153
13.954697,5553
13.955466,4337
13.956240,3984
13.957012,4577
13.957867,4545
13.958869,3968
13.959869,4849
13.960869,5649
13.961869,5937
13.962871,5409
13.963869,4016
13.964868,4497
13.965870,4897
13.966869,4881
13.967870,4961
13.968871,6273
13.969867,4353
13.970871,5841
13.971870,5569
13.972869,6737
13.973867,5057
13.974869,4465
13.975870,5121
13.976869,5041
13.977869,4705
13.978869,4753
13.979869,4193
13.980869,3760
13.981869,5217
13.982867,4865
13.983869,4529
13.984870,4369
13.985869,3712
13.986870,3984
13.987871,5505
13.988868,5249
13.989870,4737
14.000299,5441
14.000545,5137
14.000767,5393
14.000985,5537
14.001199,5905
14.001414,4625
14.001629,4961
14.001850,5265
14.002071,4385
14.002291,4016
14.002870,4561
14.003870,4641
14.004868,4080
14.005870,4032
14.006869,5793
14.007870,4577
14.008867,3712
14.009869,4673
14.010869,5441
14.011869,4577
14.012869,4129
14.013867,4897
14.014871,5153
14.015869,4609
14.016869,4289
14.017869,4737
14.018870,4993
14.019869,5185
14.020867,4016
14.021869,4801
14.022869,5025
14.023871,4449
14.024870,4721
14.025870,4737
14.026868,5105
14.027868,4577
14.028869,3920
14.029869,3872
14.030868,5137
14.031869,3840
14.032869,8786
14.033872,6017
14.034869,4897
