Tempo(s),EMG_Value
0.005091,7233
0.006589,6817
0.006971,7265
0.007930,5281
0.008925,5633
0.009925,5393
0.010923,5633
0.011925,6849
0.012926,5521
0.013922,6097
0.014925,7105
0.015926,5985
0.016923,6273
0.017924,5729
0.018925,5393
0.019925,6593
0.020924,5249
0.021924,5633
0.022925,6705
0.023924,5905
0.024924,5377
0.025924,6033
0.026925,5409
0.027922,5265
0.028925,7217
0.029923,6673
0.030942,6273
0.031932,4673
0.032926,4881
0.033924,6721
0.034924,6145
0.035924,7473
0.036925,5777
0.037924,5297
0.038924,5505
0.039924,5249
0.040925,6929
0.041925,6209
0.042924,5713
0.043924,5377
0.044924,5105
0.045924,5921
0.046924,6497
0.047923,6145
0.048926,6289
0.049925,5761
0.050923,6433
0.051923,6273
0.052924,5265
0.053923,4913
0.054925,5121
0.055924,5985
0.056925,6017
0.057926,5345
0.058922,6449
0.059925,5697
0.060924,6113
0.061924,5457
0.062924,5361
0.063924,5345
0.064924,5585
0.065925,8242
0.066926,6321
0.067924,6161
0.068924,6497
0.069923,5601
0.070924,5505
0.071926,5425
0.072922,5649
0.073924,5873
0.074924,5697
0.075923,5601
0.076925,5169
0.077924,6017
0.078925,5713
0.079923,5825
0.080924,5825
0.081924,6081
0.082924,5729
0.083924,7217
0.084925,6065
0.085922,5713
0.086925,5393
0.087924,5041
0.088925,6017
0.089925,5457
0.090924,5425
0.091922,5969
0.092925,5345
0.093925,5057
0.094939,6609
0.095931,6065
0.096925,6385
0.097924,6929
0.098923,6913
0.099926,5905
0.100923,5313
0.101923,5681
0.102926,5233
0.103922,5937
0.104926,5857
0.105924,6081
0.106924,5345
0.107922,5297
0.108924,6737
0.109923,6481
0.110924,5329
0.111924,5857
0.112926,6865
0.113925,5585
0.114925,5521
0.115925,7009
0.116923,7809
0.117923,6209
0.118925,5473
0.119924,5409
0.120923,5457
0.121924,5969
0.122922,5921
0.123924,5249
0.124924,5681
0.125924,5505
0.126924,6369
0.127924,5841
0.128924,5825
0.129923,5633
0.130924,6177
0.131923,6913
0.132924,5937
0.133923,6257
0.134925,6449
0.135926,5681
0.136925,5585
0.137922,5473
0.138925,5169
0.139925,4833
0.140925,5713
0.141924,8177
0.142924,7761
0.143924,5857
0.144923,5505
0.145925,6225
0.146923,5441
0.147923,6305
0.148925,6561
0.149924,5425
0.150924,5857
0.151925,6321
0.152924,5937
0.153922,6753
0.154926,8354
0.155925,6305
0.156924,5729
0.157925,5473
0.158939,5793
0.159930,6273
0.160926,5505
0.161926,5569
0.162922,5393
0.163924,6497
0.164924,5425
0.165922,5777
0.166924,5601
0.167926,6033
0.168927,5969
0.169924,6145
0.170925,6449
0.171925,6257
0.172922,6065
0.173925,5313
0.174923,5937
0.175923,6657
0.176925,6785
0.177924,5793
0.178924,5777
0.179924,5681
0.180926,5889
0.181924,5713
0.182925,6321
0.183924,6321
0.184923,5585
0.185925,6593
0.186922,6881
0.187924,5761
0.188923,6433
0.189924,6017
0.190925,5265
0.191924,7185
0.192922,6497
0.193924,5985
0.194923,6177
0.195924,7409
0.196923,5985
0.197925,5281
0.198925,6193
0.199924,5809
0.200924,6465
0.201926,6017
0.202925,6225
0.203926,5681
0.327155,6225
0.327775,6977
0.328192,5521
0.328571,6289
0.328948,5745
0.329390,5345
0.329762,5009
0.330135,4481
0.330506,4961
0.330897,6065
0.331272,6417
0.331647,6529
0.332027,7041
0.332925,6721
0.333925,6625
0.334922,6401
0.335924,5665
0.336925,7569
0.337924,6401
0.338925,6193
0.339925,6913
0.340924,6801
0.341924,6545
0.342926,6161
0.343926,5825
0.344924,6929
0.345924,7313
0.346924,6305
0.347923,6353
0.348922,5937
0.349923,6033
0.350947,7617
0.351928,5569
0.352924,5681
0.353923,5809
0.354924,7233
0.355925,6849
0.356924,7249
0.357925,6305
0.358924,5937
0.359923,5921
0.360923,5841
0.361924,5937
0.362924,7505
0.363926,7649
0.364924,6369
0.365925,5985
0.366925,6513
0.367924,6721
0.368922,6369
0.369924,5793
0.370924,6065
0.371924,7265
0.372925,5889
0.373923,6049
0.374924,6081
0.375925,6993
0.376922,7105
0.377926,5953
0.378924,6049
0.379925,5889
0.380923,6193
0.381926,6193
0.382923,5505
0.383924,6417
0.384925,6385
0.385924,7185
0.386925,6401
0.387924,6801
0.388923,5601
0.389923,6113
0.390924,6321
0.391924,7265
0.392924,6273
0.393924,5409
0.394925,6529
0.395926,5857
0.396924,6673
0.397924,6321
0.398923,6465
0.399924,6321
0.400922,6689
0.401924,5633
0.402925,6145
0.403924,6753
0.404924,6449
0.405924,5569
0.406926,6337
0.407925,7297
0.408922,6993
0.409924,5713
0.410924,5937
0.411922,7297
0.412925,6177
0.413924,5857
0.414939,5313
0.415930,8177
0.416926,7681
0.417925,6881
0.418926,5969
0.419924,6209
0.420922,6465
0.421924,6593
0.422924,5521
0.423924,6833
0.424926,6097
0.425925,5809
0.426925,5937
0.427924,6593
0.428924,6737
0.429924,6817
0.430921,7505
0.431925,6561
0.432922,6353
0.433925,6145
0.434926,6241
0.435924,6881
0.436924,5825
0.437924,5697
0.438924,6353
0.439923,6833
0.440923,6097
0.441925,6689
0.442924,6113
0.443924,6113
0.444925,6497
0.445924,5665
0.446924,6209
0.447924,8834
0.448925,7313
0.449924,6497
0.450924,6657
0.451924,7185
0.452924,6193
0.453924,6241
0.454925,5697
0.455924,6385
0.456925,6737
0.457925,6433
0.458923,5953
0.459922,6577
0.460923,6209
0.461926,6689
0.462923,7089
0.463924,6657
0.464924,6481
0.465924,7617
0.466924,6657
0.467926,6961
0.468925,6449
0.469925,6033
0.470926,5873
0.471924,6033
0.472924,5937
0.473925,7137
0.474926,7073
0.475924,7345
0.476925,5921
0.477923,6593
0.478940,6529
0.479928,6049
0.480925,5953
0.481924,6001
0.482924,6001
0.483925,6465
0.484925,7089
0.485924,6801
0.486925,6945
0.487924,7713
0.488924,7089
0.489924,6225
0.490924,7233
0.491923,6721
0.492926,5569
0.493924,5937
0.494924,7153
0.495925,5889
0.496923,6193
0.497926,6561
0.498923,6577
0.499923,7297
0.500925,7137
0.501926,5905
0.502924,6657
0.503924,6353
0.504923,5857
0.505924,5921
0.506926,6945
0.507924,6369
0.508925,6353
0.509922,7505
0.510925,6945
0.511923,6337
0.512926,5409
0.513924,6321
0.514924,6593
0.515925,6817
0.516923,7745
0.517924,7489
0.518921,7521
0.673473,6209
0.674270,7697
0.674824,7521
0.675364,7201
0.675894,5761
0.676490,5025
0.677020,5777
0.677544,4865
0.678075,6113
0.678621,7377
0.679149,7905
0.679678,7265
0.680211,6929
0.680738,6033
0.681270,7217
0.681802,6433
0.682339,7393
0.682922,7617
0.683926,6913
0.684924,6353
0.685922,6337
0.686926,7345
0.687925,6209
0.688924,6881
0.689924,7313
0.690926,6673
0.691925,6321
0.692926,6961
0.693925,6097
0.694925,5873
0.695924,5697
0.696923,7121
0.697925,6545
0.698924,6577
0.699923,7025
0.700924,5921
0.701924,6593
0.702924,7553
0.703925,6817
0.704925,6273
0.705924,6945
0.706924,7857
0.707924,6081
0.708925,6033
0.709924,5761
0.710923,6497
0.711924,6961
0.712925,7345
0.713925,6561
0.714922,6353
0.715925,6913
0.716924,6417
0.717924,7297
0.718923,6833
0.719924,6497
0.720922,6993
0.721924,7489
0.722923,5969
0.723925,4657
0.724924,6577
0.725924,7841
0.726922,7745
0.727924,6209
0.728926,6817
0.729922,6177
0.730925,6337
0.731925,6993
0.732924,6753
0.733924,6625
0.734948,6049
0.735930,5905
0.736923,7825
0.737924,7361
0.738924,5841
0.739923,4993
0.740924,8642
0.741924,7521
0.742922,8177
0.743924,6049
0.744926,6977
0.745926,7681
0.746925,9778
0.747924,6897
0.748924,6497
0.749925,6209
0.750924,6097
0.751924,7361
0.752924,7825
0.753924,7233
0.754924,6785
0.755922,6273
0.756925,6529
0.757924,6977
0.758924,6497
0.759926,5889
0.760924,6721
0.761924,6161
0.762924,7009
0.763926,7073
0.764923,5937
0.765924,6241
0.766926,7697
0.767923,7585
0.768924,6177
0.769927,6273
0.770924,6753
0.771924,6113
0.772924,7857
0.773922,7985
0.774925,6097
0.775925,6209
0.776925,6785
0.777922,7169
0.778926,6433
0.779924,7201
0.780924,5969
0.781924,5729
0.782923,6753
0.783923,6209
0.784923,6977
0.785926,7425
0.786922,8177
0.787925,6497
0.788924,7057
0.789924,6209
0.790922,6337
0.791924,5905
0.792924,7857
0.793924,7905
0.794924,6049
0.795926,6033
0.796924,7217
0.797923,7393
0.798945,6705
0.799928,5457
0.800926,6177
0.801924,6241
0.802924,7329
0.803924,7329
0.804926,6753
0.805922,6961
0.806923,6065
0.807925,5953
0.808923,6481
0.809924,6465
0.810925,6849
0.811924,6241
0.812924,6673
0.813926,7953
0.814924,7041
0.815924,6689
0.816923,6273
0.817925,6657
0.818923,6305
0.819924,6497
0.820924,7761
0.821924,6321
0.822923,6225
0.823925,6913
0.824924,7265
0.825924,7169
0.826924,6961
0.827924,6977
0.828925,6849
0.829923,7089
0.830926,6209
0.831924,6273
0.832924,6689
0.833923,6833
0.834923,6625
0.835924,5425
0.836924,6641
0.837922,6561
0.838927,6001
0.839924,6161
0.840923,7121
0.841924,6689
0.842924,6209
0.843925,6177
0.844924,7521
0.845924,7569
0.846925,6529
0.847924,6833
0.848922,6913
0.849925,6337
0.850924,5985
0.851926,6593
0.852923,7217
0.853924,7553
0.854925,7297
0.855923,6529
0.856923,6673
0.857924,6353
0.858925,6481
0.859926,6657
0.860923,5969
0.861926,7505
0.862943,7217
0.863931,6401
0.864925,7393
1.011540,6673
1.012504,6161
1.013218,5057
1.013906,6497
1.014579,7489
1.015326,7393
1.016009,5937
1.016691,5329
1.017371,5249
1.018074,5537
1.018755,6673
1.019438,6033
1.020124,6017
1.020804,6785
1.021491,5633
1.022180,5969
1.022862,6993
1.023570,7729
1.024259,5921
1.024945,5281
1.025629,6577
1.026317,5921
1.027008,6097
1.027696,4657
1.028386,5153
1.029076,6289
1.029925,6881
1.030926,7249
1.031925,6609
1.032923,5857
1.033924,6113
1.034922,6081
1.035923,6289
1.036924,5969
1.037924,7729
1.038924,6353
1.039924,6801
1.040925,7361
1.041924,6673
1.042922,4689
1.043925,4881
1.044925,6561
1.045923,6081
1.046923,6833
1.047924,7025
1.048924,7697
1.049924,5553
1.050925,5937
1.051925,6065
1.052924,7201
1.053924,6417
1.054947,5729
1.055927,6849
1.056926,6913
1.057924,6289
1.058925,6689
1.059925,6497
1.060925,6625
1.061925,6177
1.062926,5969
1.063924,5185
1.064926,6785
1.065924,7313
1.066924,6369
1.067925,6113
1.068926,6929
1.069924,7089
1.070924,6657
1.071922,5185
1.072924,6193
1.073926,6753
1.074923,6289
1.075927,6545
1.076925,7489
1.077924,6865
1.078923,6513
1.079923,6401
1.080926,6369
1.081924,6465
1.082924,6145
1.083925,6529
1.084926,6721
1.085922,5041
1.086924,6689
1.087924,6641
1.088924,5473
1.089924,7169
1.090925,6993
1.091924,6033
1.092926,7521
1.093924,6337
1.094924,5937
1.095924,6481
1.096924,5345
1.097924,5905
1.098925,7345
1.099926,8177
1.100924,5905
1.101922,5249
1.102923,5809
1.103924,6193
1.104925,5697
1.105925,6337
1.106924,6993
1.107924,6433
1.108923,5889
1.109924,6753
1.110925,7345
1.111926,6225
1.112924,6673
1.113924,5249
1.114926,6801
1.115926,6801
1.116922,6145
1.117926,6401
1.118943,6177
1.119932,6993
1.120924,6881
1.121925,6369
1.122924,5697
1.123925,4865
1.124925,5793
1.125922,5857
1.126924,6145
1.127924,5521
1.128924,6833
1.129924,5377
1.130924,5793
1.131925,6273
1.132926,7345
1.133924,5969
1.134924,6097
1.135924,6081
1.136922,5953
1.137924,6145
1.138922,5265
1.139924,5825
1.140924,6241
1.141923,5009
1.142925,6609
1.143925,5921
1.144924,5873
1.145923,5937
1.146923,5473
1.147924,6241
1.148924,6593
1.149925,5553
1.150926,5873
1.151926,7841
1.152926,7057
1.153924,7857
1.154924,6017
1.155924,5329
1.156926,6689
1.157925,5697
1.158924,5297
1.159924,5249
1.160924,6241
1.161924,6369
1.162924,6625
1.163926,5857
1.164926,6065
1.165924,5521
1.166924,5713
1.167925,6913
1.168924,6529
1.169924,5409
1.170926,6689
1.171925,6273
1.172924,6417
1.173925,6497
1.174923,6065
1.175924,6625
1.176925,6417
1.177924,5697
1.178922,6433
1.179925,6081
1.180924,5057
1.181953,6961
1.182928,7073
1.183926,6337
1.184925,6337
1.185926,7313
1.186924,5569
1.187926,5297
1.188926,6369
1.189925,7745
1.190923,5473
1.191924,4881
1.192923,5937
1.193924,6321
1.194924,5569
1.195924,5585
1.196924,6049
1.197924,6113
1.198925,5073
1.199925,5601
1.200925,5937
1.201924,6321
1.202923,7617
1.366912,6849
1.367406,5889
1.367671,5793
1.367918,5793
1.368157,6785
1.368421,6449
1.368653,7009
1.368894,5905
1.369135,6449
1.369391,5761
1.369634,6097
1.369926,5473
1.370924,6721
1.371924,5921
1.372925,4913
1.373924,5521
1.374942,6337
1.375928,7553
1.376921,5985
1.377926,5665
1.378924,5025
1.379924,6513
1.380924,6881
1.381925,6225
1.382924,5041
1.383924,5521
1.384924,8017
1.385924,6017
1.386926,6033
1.387925,6321
1.388923,6033
1.389925,6209
1.390924,5441
1.391922,5569
1.392924,5409
1.393924,6033
1.394922,6193
1.395926,6817
1.396924,4961
1.397926,5473
1.398926,5393
1.399925,5361
1.400924,6081
1.401923,7889
1.402926,6961
1.403925,5665
1.404926,5329
1.405924,4945
1.406924,6657
1.407924,6417
1.408925,6561
1.409926,5905
1.410925,5425
1.411923,5473
1.412925,7089
1.413922,6321
1.414922,5153
1.415924,5025
1.416924,5185
1.417924,8242
1.418924,8097
1.419926,6449
1.420926,7121
1.421926,6353
1.422922,5457
1.423925,5729
1.424925,5761
1.425922,5681
1.426924,5793
1.427925,5681
1.428924,4865
1.429925,5137
1.430926,8161
1.431924,5553
1.432925,5297
1.433925,5089
1.434924,5073
1.435925,6273
1.436925,8610
1.437924,5793
1.438942,5889
1.439928,8354
1.440925,6001
1.441925,6353
1.442923,5825
1.443923,6241
1.444925,5905
1.445923,5361
1.446924,5281
1.447924,6449
1.448923,6529
1.449923,5601
1.450925,6177
1.451924,5697
1.452924,5553
1.453926,5969
1.454924,6081
1.455922,4849
1.456925,4769
1.457924,7249
1.458924,7329
1.459924,5761
1.460924,5521
1.461926,6289
1.462924,6481
1.463925,5601
1.464924,5505
1.465923,5345
1.466925,6465
1.467924,5793
1.468925,5393
1.469925,5457
1.470924,5953
1.471925,5873
1.472924,4993
1.473923,5953
1.474926,6705
1.475924,6337
1.476924,5281
1.477922,6929
1.478926,6049
1.479924,5009
1.480924,4865
1.481924,8065
1.482924,8386
1.483924,6081
1.484924,6337
1.485924,6049
1.486924,5489
1.487924,5265
1.488925,5985
1.489922,6273
1.490926,5905
1.491924,5697
1.492926,5857
1.493924,6305
1.494925,5777
1.495924,5713
1.496923,5057
1.497923,5409
1.498925,7841
1.499923,6209
1.500926,5649
1.501924,5137
1.502940,5665
1.503928,6689
1.504925,6913
1.505923,5713
1.506925,5761
1.507924,5425
1.508925,5473
1.509925,4929
1.510924,6993
1.511924,7249
1.512925,6449
1.513923,5201
1.514925,5457
1.515924,5889
1.516925,5969
1.517922,5953
1.518926,5809
1.519926,6481
1.520925,4945
1.521924,5713
1.522924,5761
1.523924,6673
1.524923,6289
1.525924,4881
1.526924,5265
1.527924,5649
1.528926,6097
1.529924,6929
1.530924,6737
1.531925,5457
1.532924,4817
1.533924,4849
1.534922,5777
1.535926,9186
1.536924,6097
1.537924,6593
1.538927,5681
1.539924,5585
1.540924,6033
1.541923,5553
1.542923,5617
1.543925,4673
1.544924,5537
1.545924,5905
1.546924,5409
1.547925,4961
1.548925,7297
1.549925,5713
1.550925,5329
1.551924,7921
1.552924,5713
1.553924,5873
1.554925,5601
1.555924,6481
1.556924,5681
1.557925,5473
1.717603,6721
1.718268,7233
1.718685,6625
1.719084,6449
1.719482,7889
1.719944,8177
1.720335,8322
1.720726,6705
1.721119,6097
1.721532,6337
1.721933,6433
1.722328,5281
1.722722,5201
1.723123,5073
1.723922,5601
1.724923,6977
1.725924,6273
1.726925,4833
1.727924,4817
1.728923,7089
1.729926,6065
1.730925,4881
1.731922,5585
1.732925,6705
1.733924,7601
1.734926,6161
1.735924,5905
1.736924,5217
1.737926,6513
1.738924,6865
1.739922,5457
1.740923,5569
1.741925,6225
1.742924,6465
1.743923,5457
1.744924,4769
1.745923,4993
1.746924,6369
1.747924,6193
1.748925,5521
1.749923,5953
1.750926,5217
1.751923,5665
1.752925,6097
1.753923,6433
1.754924,5249
1.755924,5073
1.756924,5697
1.757926,7313
1.758949,7185
1.759933,7809
1.760928,5521
1.761927,4945
1.762925,6497
1.763924,6033
1.764923,6033
1.765925,6401
1.766924,5953
1.767926,4993
1.768924,4737
1.769924,4881
1.770925,4945
1.771924,6065
1.772923,5537
1.773925,6913
1.774925,7297
1.775922,6033
1.776922,5265
1.777924,6865
1.778923,6913
1.779925,5665
1.780925,5121
1.781925,5793
1.782925,5633
1.783926,6049
1.784924,5537
1.785922,5201
1.786926,5265
1.787924,6305
1.788923,5937
1.789922,6049
1.790924,5745
1.791925,5633
1.792923,6593
1.793923,5329
1.794923,5217
1.795924,6177
1.796926,5857
1.797926,6225
1.798924,6417
1.799926,5457
1.800925,5585
1.801924,5921
1.802924,6209
1.803924,6193
1.804924,6001
1.805924,6193
1.806924,6065
1.807923,4961
1.808926,5297
1.809924,5569
1.810924,5857
1.811927,5313
1.812924,5201
1.813923,5409
1.814923,6753
1.815924,6081
1.816924,5937
1.817923,6689
1.818923,6177
1.819923,5569
1.820922,4897
1.821925,5601
1.822945,6913
1.823930,7825
1.824928,5921
1.825925,6993
1.826924,5297
1.827924,5665
1.828923,5217
1.829924,5921
1.830922,5681
1.831923,5377
1.832922,5857
1.833923,6225
1.834925,5825
1.835924,6065
1.836924,5153
1.837923,4993
1.838924,6241
1.839924,8001
1.840924,5713
1.841922,5137
1.842926,5553
1.843924,5249
1.844925,8097
1.845924,5889
1.846924,5441
1.847924,6497
1.848926,5873
1.849925,5057
1.850925,7025
1.851924,7585
1.852924,4961
1.853923,4865
1.854924,6641
1.855923,6817
1.856924,5569
1.857923,6417
1.858924,5841
1.859923,5745
1.860924,5889
1.861923,5553
1.862922,5585
1.863923,5201
1.864926,6081
1.865922,5057
1.866924,5201
1.867924,6401
1.868924,5905
1.869925,6145
1.870926,6081
1.871924,5553
1.872923,5185
1.873923,5537
1.874923,6737
1.875924,7073
1.876925,6273
1.877925,6065
1.878924,5089
1.879924,5121
1.880924,6273
1.881924,5601
1.882925,5521
1.883927,6369
1.884924,6369
1.885956,5393
1.886929,5425
1.887924,5425
1.888924,5889
1.889925,5537
1.890924,5921
1.891924,7409
1.892927,5457
1.893924,5089
1.894924,5761
1.895924,8081
1.896925,6401
1.897923,6097
1.898924,6017
1.899925,5153
1.900925,5473
1.901923,6417
1.902924,6097
1.903924,6209
1.904923,5457
1.905924,5409
1.906922,5345
1.907925,8177
1.908924,6673
2.064544,5089
2.065358,6705
2.065942,7521
2.066497,7265
2.067048,7953
2.067656,6865
2.068204,6193
2.068749,5889
2.069300,6257
2.069860,6353
2.070406,4833
2.070954,5361
2.071509,5681
2.072059,6273
2.072607,5313
2.073160,7873
2.073709,7457
2.074287,7265
2.074925,5569
2.075923,5777
2.076926,5985
2.077924,5009
2.078949,5329
2.079932,5297
2.080926,6289
2.081925,6465
2.082923,6033
2.083925,6209
2.084922,5217
2.085923,5969
2.086922,6577
2.087924,6561
2.088926,5521
2.089924,5265
2.090923,5265
2.091924,6993
2.092924,6289
2.093922,5633
2.094925,5217
2.095924,5681
2.096926,6209
2.097925,6577
2.098925,5809
2.099924,5537
2.100925,5537
2.101924,6321
2.102924,5729
2.103926,6273
2.104924,6289
2.105926,6529
2.106925,5521
2.107925,5313
2.108926,5585
2.109924,5361
2.110924,6289
2.111924,6081
2.112924,5377
2.113925,5553
2.114924,5537
2.115922,6417
2.116924,5953
2.117925,6081
2.118924,5985
2.119924,5569
2.120926,6289
2.121924,5601
2.122924,5393
2.123926,7809
2.124925,6113
2.125923,5729
2.126925,5457
2.127925,7489
2.128924,5905
2.129924,5713
2.130925,5281
2.131923,5793
2.132925,5393
2.133923,6369
2.134924,7345
2.135924,6577
2.136925,5329
2.137923,5329
2.138925,5025
2.139924,7217
2.140926,7361
2.141926,6001
2.142942,6465
2.143930,5009
2.144924,4993
2.145927,5441
2.146924,6689
2.147924,6417
2.148924,5601
2.149925,4817
2.150926,6065
2.151923,6945
2.152926,5729
2.153924,5921
2.154924,7201
2.155922,7233
2.156925,6529
2.157926,5825
2.158924,6945
2.159926,5505
2.160924,5217
2.161924,5665
2.162922,5569
2.163924,5681
2.164924,5921
2.165924,7537
2.166923,5937
2.167924,6337
2.168923,6177
2.169924,6177
2.170922,5969
2.171926,6161
2.172926,5425
2.173925,6289
2.174924,6417
2.175923,6593
2.176923,5777
2.177924,5601
2.178923,6177
2.179925,5969
2.180926,5249
2.181923,5617
2.182924,6817
2.183924,6113
2.184923,6577
2.185925,6337
2.186923,5585
2.187925,6801
2.188923,5665
2.189924,5905
2.190924,5825
2.191924,5553
2.192925,5665
2.193923,6305
2.194924,5569
2.195925,5185
2.196924,5649
2.197924,6881
2.198924,5345
2.199924,6145
2.200922,6785
2.201925,5985
2.202922,5857
2.203924,8322
2.204925,6481
2.205925,5313
2.206939,8177
2.207926,6273
2.208924,5745
2.209926,5553
2.210925,5601
2.211926,5953
2.212925,5201
2.213927,7377
2.214925,6913
2.215925,6225
2.216922,6929
2.217923,6017
2.218926,5393
2.219924,5857
2.220926,5377
2.221923,6241
2.222924,5857
2.223924,5921
2.224924,5697
2.225926,5697
2.226926,5297
2.227925,6273
2.228926,5425
2.229924,6369
2.230925,6657
2.231924,6481
2.232922,5729
2.233923,5969
2.234924,5553
2.235925,5089
2.236922,6289
2.237923,7185
2.238923,5681
2.239924,5521
2.240924,6705
2.241924,6465
2.242926,5729
2.243924,6593
2.244924,5905
2.245924,5969
2.246926,5265
2.247924,5777
2.248924,5953
2.249923,6481
2.250922,5697
2.251923,5713
2.252924,6177
2.253926,5697
2.254926,6577
2.255924,5809
2.364676,5233
2.365647,6369
2.366379,5729
2.367090,7137
2.367791,6881
2.368566,6993
2.369271,5809
2.369977,5793
2.370683,6081
2.371403,6337
2.372114,5345
2.372822,6209
2.373533,5857
2.374245,6657
2.374957,6305
2.375669,6881
2.376382,6305
2.377116,6625
2.377824,6161
2.378536,6737
2.379252,5985
2.379967,6913
2.380681,6561
2.381399,5617
2.382115,6689
2.382828,5521
2.383545,5857
2.384267,3920
2.384986,5121
2.385925,8578
2.386924,6785
2.387924,6033
2.388926,6417
2.389924,5905
2.390926,5505
2.391924,6609
2.392922,7393
2.393923,6161
2.394924,6065
2.395923,6017
2.396924,5889
2.397924,7073
2.398946,6369
2.399928,4769
2.400926,6193
2.401926,6641
2.402921,7121
2.403924,6209
2.404925,6689
2.405925,6193
2.406922,6209
2.407924,5457
2.408924,5585
2.409924,5713
2.410925,6161
2.411926,5729
2.412925,6273
2.413924,5665
2.414923,5937
2.415922,5809
2.416924,5473
2.417924,7041
2.418921,7521
2.419926,6433
2.420925,6961
2.421924,5841
2.422926,5665
2.423923,5713
2.424923,5393
2.425925,5793
2.426924,6417
2.427924,6593
2.428924,5553
2.429925,6481
2.430926,5793
2.431921,5713
2.432924,6145
2.433924,6193
2.434922,6401
2.435924,6161
2.436925,5633
2.437926,8242
2.438924,7281
2.439924,6737
2.440925,6161
2.441923,5393
2.442924,6017
2.443926,6465
2.444923,6401
2.445924,5825
2.446924,5777
2.447924,5665
2.448925,5841
2.449922,5985
2.450925,5937
2.451926,6417
2.452923,5473
2.453922,6049
2.454924,6241
2.455925,6385
2.456923,6657
2.457925,5457
2.458925,5825
2.459925,7681
2.460924,5921
2.461924,5889
2.462942,6865
2.463928,5105
2.464924,5761
2.465924,5921
2.466926,5873
2.467924,6145
2.468925,6785
2.469925,5329
2.470923,6033
2.471924,5921
2.472923,6385
2.473924,5377
2.474924,5649
2.475925,6065
2.476924,5937
2.477924,6545
2.478924,7553
2.479925,6209
2.480923,6865
2.481924,7249
2.482925,5841
2.483924,5985
2.484924,5489
2.485923,6065
2.486925,5505
2.487925,5697
2.488923,6785
2.489924,5793
2.490924,6433
2.491924,5777
2.492923,6145
2.493922,6081
2.494924,7137
2.495925,6033
2.496922,7105
2.497926,6145
2.498924,6529
2.499924,7009
2.500926,5297
2.501924,5649
2.502924,5649
2.503926,6417
2.504924,6497
2.505923,6961
2.506922,6945
2.507925,6305
2.508926,5249
2.509926,5649
2.510924,6801
2.511926,7265
2.512924,6049
2.523491,6753
2.523718,7137
2.523929,6737
2.524134,7313
2.524341,8017
2.524549,6609
2.524759,5905
2.524979,5937
2.525192,6657
2.525401,5937
2.525923,5761
2.526944,6577
2.527929,7425
2.528924,5553
2.529924,5457
2.530926,5089
2.531926,6545
2.532924,7153
2.533926,6769
2.534925,6209
2.535924,7057
2.536922,6337
2.537925,6033
2.538924,5809
2.539923,6113
2.540923,5601
2.541923,5969
2.542925,5425
2.543924,6881
2.544924,6529
2.545924,6529
2.546923,5521
2.547925,6161
2.548923,6465
2.549925,5953
2.550924,6097
2.551925,6929
2.552922,6465
2.553926,5521
2.554922,6113
2.555925,6049
2.556924,5905
2.557923,6529
2.723155,5649
2.723684,5985
2.724008,5793
2.724295,6561
2.724587,5057
2.724943,6561
2.725233,5425
2.725516,6289
2.725804,6721
2.726110,7281
2.726392,8081
2.726926,5985
2.727922,5745
2.728925,5633
2.729923,6129
2.730922,7329
2.731924,7009
2.732925,5857
2.733923,5921
2.734924,7233
2.735925,6913
2.736926,5825
2.737927,6673
2.738925,5617
2.739925,6609
2.740924,5921
2.741923,6449
2.742922,8033
2.743925,6145
2.744924,7121
2.745925,6465
2.746924,6177
2.747925,6177
2.748926,6049
2.749923,6241
2.750925,6481
2.751926,5761
2.752924,6849
2.753923,6817
2.754924,6545
2.755924,6705
2.756924,6305
2.757923,6449
2.758925,5729
2.759925,6817
2.760924,5857
2.761926,6625
2.762924,7489
2.763924,5921
2.764924,6065
2.765925,6433
2.766924,6449
2.767924,6465
2.768925,6625
2.769925,6593
2.770924,6193
2.771922,6321
2.772925,5857
2.773927,5825
2.774922,7569
2.775923,6913
2.776923,7409
2.777923,6241
2.778924,5537
2.779924,7457
2.780924,6337
2.781926,6145
2.782941,5537
2.783928,6577
2.784925,6737
2.785925,5681
2.786927,6929
2.787924,7041
2.788924,6689
2.789924,6481
2.790924,7601
2.791926,6433
2.792924,5985
2.793926,5505
2.794924,6145
2.795924,7057
2.796926,5809
2.797923,6273
2.798923,6257
2.799924,6481
2.800925,6833
2.801927,6753
2.802922,6417
2.803923,7265
2.804924,6689
2.805923,6145
2.806925,5585
2.807922,6225
2.808925,6209
2.809924,5857
2.810922,6833
2.811924,6337
2.812924,6337
2.813924,7249
2.814924,6369
2.815923,6721
2.816924,6161
2.817924,6625
2.818924,6561
2.819926,6529
2.820924,6513
2.821925,6497
2.822925,6417
2.823925,6881
2.824926,5601
2.825924,6833
2.826926,6481
2.827924,7009
2.828925,5553
2.829924,6929
2.830924,6785
2.831925,6449
2.832922,6529
2.833924,6017
2.834924,6065
2.835924,6017
2.836923,5665
2.837923,7553
2.838923,6177
2.839925,8065
2.840924,7169
2.841924,6689
2.842924,6193
2.843924,6049
2.844925,6305
2.845925,6177
2.846940,5553
2.847932,7281
2.848925,6273
2.849925,5841
2.850926,7249
2.851924,7841
2.852924,6961
2.853927,6209
2.854924,6465
2.855926,5889
2.856926,7121
2.857924,7201
2.858925,6961
2.859926,5889
2.860925,5617
2.861925,6129
2.862924,6977
2.863922,6737
2.864924,6241
2.865925,5985
2.866924,6465
2.867926,7041
2.868924,6081
2.869925,5905
2.870925,6673
2.871922,6161
2.872924,6833
2.873924,6465
2.874925,7185
2.875925,6449
2.876924,6081
2.877924,6401
2.878924,6609
2.879925,5921
2.880926,6017
2.881924,6593
2.882924,6177
2.883924,6481
2.884924,6337
2.885927,7153
2.886924,7393
2.887926,6065
2.888924,6241
2.889923,6113
2.890924,5969
2.891925,7681
2.892924,5969
2.893924,6609
2.894922,7793
2.895924,5841
2.896924,7073
2.897924,7249
2.898923,6097
2.899924,6657
2.900924,6273
2.901924,7441
2.902925,6177
2.903924,6337
2.904924,6993
2.905924,6209
2.906922,5857
2.907924,7473
2.908924,7233
2.909927,5905
2.910940,4769
2.911934,5841
2.912927,6753
2.913924,6369
2.914922,6321
3.064287,5969
3.064993,6353
3.065465,6065
3.065912,5969
3.066349,6961
3.066854,6529
3.067297,7841
3.067735,6529
3.068178,6945
3.068632,5889
3.069073,6545
3.069509,5313
3.069951,5841
3.070394,5729
3.070924,7121
3.071924,6481
3.072926,6193
3.073925,6625
3.074923,6945
3.075924,5505
3.076925,6017
3.077923,8674
3.078924,8322
3.079924,6929
3.080923,6545
3.081924,6673
3.082924,5873
3.083924,7361
3.084924,7361
3.085925,6561
3.086922,6865
3.087924,6689
3.088924,6625
3.089924,5873
3.090924,6753
3.091923,6913
3.092924,8290
3.093924,7137
3.094924,6017
3.095925,6673
3.096924,6561
3.097924,6497
3.098927,6353
3.099924,5905
3.100926,6209
3.101924,7473
3.102947,6097
3.103928,6049
3.104924,6177
3.105925,7073
3.106926,6865
3.107924,6177
3.108925,6305
3.109924,6225
3.110924,6113
3.111926,6465
3.112925,6641
3.113925,6033
3.114923,9250
3.115925,8322
3.116922,6401
3.117924,6401
3.118922,7377
3.119926,6065
3.120924,6273
3.121924,6241
3.122924,7361
3.123924,5761
3.124924,7505
3.125927,7233
3.126924,6785
3.127924,6577
3.128924,6801
3.129924,6289
3.130923,6737
3.131925,6337
3.132925,6177
3.133924,6145
3.134925,7873
3.135924,8081
3.136926,5905
3.137925,5905
3.138923,6625
3.139926,5025
3.140924,7153
3.141922,7985
3.142924,7713
3.143923,6321
3.144924,6177
3.145924,7121
3.146923,7201
3.147925,6465
3.148924,6113
3.149924,6945
3.150925,6737
3.151923,6929
3.152924,6945
3.153926,6705
3.154926,6577
3.155924,5281
3.156924,6497
3.157924,6993
3.158926,7313
3.159925,7025
3.160923,6337
3.161925,6561
3.162925,7105
3.163924,5953
3.164924,6065
3.165923,7201
3.166943,6913
3.167928,6833
3.168925,7569
3.169925,6433
3.170924,6321
3.171925,5777
3.172924,6977
3.173924,6785
3.174923,7137
3.175924,6913
3.176926,6673
3.177924,6209
3.178924,6081
3.179925,6369
3.180925,7377
3.181924,6609
3.182923,7009
3.183924,5937
3.184924,7601
3.185924,6273
3.186925,7201
3.187925,7953
3.188924,7137
3.189924,6913
3.190922,6353
3.191924,6497
3.192925,7057
3.193926,6961
3.194923,6705
3.195924,6657
3.196924,6817
3.197924,6577
3.198925,6465
3.199924,6193
3.200925,7249
3.201925,7201
3.202924,8001
3.203925,6001
3.204923,6609
3.205924,6737
3.206925,6193
3.207925,6209
3.208922,6177
3.209922,6385
3.210924,7889
3.211926,6785
3.212923,7169
3.213925,6945
3.214924,7313
3.215925,6849
3.216924,6865
3.217924,6161
3.218924,7057
3.219924,5345
3.220925,6161
3.221924,5985
3.222924,7153
3.223925,8161
3.224924,7185
3.225924,7121
3.226926,6209
3.227924,6609
3.228924,7633
3.229924,8065
3.230942,6017
3.231928,6417
3.232926,6337
3.233924,6753
3.234923,7569
3.235924,5377
3.236924,5761
3.237923,7201
3.238923,6193
3.239924,6897
3.240925,7777
3.241925,6913
3.242922,6961
3.243925,7105
3.244922,5633
3.245923,7073
3.246924,8129
3.247925,7857
3.248924,7649
3.249924,7505
3.250924,6465
3.251922,5009
3.252924,5969
3.253925,6017
3.254923,7089
3.255926,7089
3.367583,5473
3.368438,6849
3.369070,6289
3.369670,7233
3.370271,8482
3.370938,6705
3.371528,7121
3.372128,7649
3.372719,6273
3.373337,6097
3.373934,6033
3.374529,6529
3.375131,6577
3.375722,6833
3.376322,6545
3.376921,5281
3.377518,4673
3.378143,4945
3.378740,5201
3.379342,7185
3.379943,6433
3.380924,7601
3.381924,5713
3.382924,5937
3.383926,7185
3.384925,8882
3.385922,6129
3.386923,6689
3.387924,6913
3.388924,6449
3.389923,6113
3.390923,7569
3.391924,6193
3.392922,4897
3.393924,6865
3.394927,7169
3.395925,6209
3.396924,6737
3.397924,7633
3.398925,6561
3.399925,7009
3.400924,6641
3.401926,6337
3.402924,6449
3.403926,6465
3.404924,7105
3.405924,6337
3.406926,7473
3.407922,6353
3.408924,6561
3.409925,6321
3.410921,5553
3.411925,8145
3.412924,6497
3.413924,5761
3.414924,6833
3.415924,6961
3.416926,6433
3.417923,6433
3.418924,7297
3.419924,7473
3.420924,6865
3.421925,6369
3.422949,7265
3.423931,6353
3.424926,6737
3.425927,6529
3.426924,6369
3.427926,6401
3.428924,6801
3.429925,6865
3.430923,6305
3.431924,6049
3.432922,5265
3.433922,5649
3.434924,6113
3.435924,7313
3.436925,8194
3.437925,7089
3.438923,8081
3.439927,6865
3.440924,6273
3.441923,6337
3.442924,6433
3.443924,6833
3.444925,7489
3.445924,6145
3.446924,6145
3.447924,6865
3.448924,6305
3.449925,7073
3.450924,5825
3.451925,7601
3.452923,6353
3.453926,6881
3.454924,6641
3.455924,7841
3.456924,7105
3.457924,5793
3.458923,5729
3.459924,4993
3.460924,7473
3.461923,6785
3.462924,6705
3.463924,6817
3.464923,5201
3.465926,7105
3.466925,6913
3.467925,6945
3.468923,5809
3.469925,7809
3.470924,6881
3.471924,6081
3.472926,6321
3.473922,5393
3.474925,5665
3.475924,7377
3.476924,6737
3.477925,6513
3.478924,6097
3.479925,5969
3.480926,5905
3.481923,6833
3.482923,7217
3.483925,7441
3.484924,6673
3.485924,6993
3.486943,6497
3.487928,6961
3.488924,6433
3.489926,6225
3.490924,6081
3.491925,5825
3.492924,6577
3.493923,5265
3.494924,7313
3.495923,6625
3.496925,6833
3.497923,6241
3.498925,5921
3.499925,6833
3.500925,7393
3.501922,4897
3.502924,6785
3.503924,6321
3.504924,6321
3.505923,5937
3.506924,6225
3.507924,6145
3.508924,6081
3.509925,6737
3.510924,6977
3.511926,6577
3.512924,6785
3.513925,7425
3.514925,5825
3.515924,6577
3.516922,5553
3.517924,6337
3.518924,6529
3.519924,7985
3.520923,6225
3.521924,5921
3.522925,6705
3.523924,5041
3.524924,5825
3.525924,7905
3.526925,6081
3.527925,5649
3.528925,6417
3.529924,6369
3.530922,6881
3.531926,6449
3.532924,6177
3.533924,5425
3.534923,5841
3.535925,7745
3.536923,6433
3.537924,6609
3.538924,5377
3.539924,4753
3.540924,6497
3.541922,5825
3.542924,7713
3.543925,7249
3.544925,6481
3.545926,6401
3.546924,5473
3.547925,6737
3.548926,5841
3.549923,5889
3.550939,6145
3.551930,6881
3.552926,6177
3.553924,5281
3.554924,6081
3.555923,6865
3.556924,5793
3.557923,4785
3.558925,6833
3.721473,7121
3.722485,7585
3.723287,6145
3.724058,6641
3.724820,5473
3.725645,5441
3.726401,7489
3.727156,6385
3.727917,5425
3.728688,5649
3.729446,5969
3.730205,6577
3.730967,6017
3.731722,6097
3.732487,7329
3.733243,7089
3.734005,7073
3.734787,5553
3.735551,5281
3.736318,4369
3.737084,6801
3.737844,8177
3.738609,6961
3.739373,5633
3.740141,6177
3.740908,7441
3.741677,6417
3.742607,6433
3.743384,6465
3.744156,7905
3.744930,6497
3.745698,5265
3.746473,7985
3.747284,8145
3.748058,7377
3.748924,5473
3.749923,7121
3.750926,6785
3.751926,5697
3.752925,4881
3.753922,5777
3.754924,5809
3.755926,5377
3.756924,5393
3.757925,5793
3.758923,6449
3.759924,5569
3.760924,5617
3.761925,5217
3.762924,6481
3.763924,6481
3.764924,5809
3.765924,6545
3.766924,5601
3.767925,5345
3.768924,5697
3.769924,5393
3.770922,5633
3.771922,6433
3.772925,5569
3.773925,5313
3.774924,5617
3.775925,5201
3.776924,5425
3.777924,6977
3.788197,6913
3.788418,6577
3.788623,6241
3.788829,7441
3.789043,6193
3.789253,6337
3.789460,6145
3.789671,5601
3.789881,6177
3.790096,4897
3.790924,4929
3.791924,7041
3.792924,6465
3.793924,7105
3.794926,5921
3.795923,6401
3.796925,5121
3.797925,5665
3.798925,6337
3.799925,5841
3.800924,4961
3.801925,4753
3.802924,5329
3.803924,6961
3.804926,6849
3.805924,7457
3.806941,6561
3.807931,6177
3.808926,5073
3.809926,4913
3.810926,5841
3.811924,5729
3.812923,6561
3.813923,6193
3.814924,5793
3.815926,4769
3.816925,6193
3.817926,5521
3.818925,4833
3.819924,5969
3.820924,6481
3.821924,6449
3.822924,5825
3.823923,6401
3.824926,5425
3.825923,5169
3.826925,6625
3.827925,5697
3.828924,5521
3.829925,5377
3.830924,5713
3.831924,5729
3.832924,5329
3.833922,5761
3.834924,5857
3.835922,5665
3.836924,5025
3.837923,5601
3.838925,5537
3.839926,6369
3.840925,6273
3.841924,5505
3.842924,6657
3.843924,6145
3.844925,5393
3.845924,5585
3.846925,5169
3.847925,5585
3.848925,6753
3.849926,5265
3.850921,5633
3.851924,7089
3.852922,5697
3.853924,6225
3.854922,6913
3.855923,5553
3.856922,5633
3.857923,5633
3.858925,5329
3.859925,6657
3.860922,5377
3.861923,5217
3.862926,4785
3.863924,5137
3.864924,6081
3.865924,6721
3.866924,5633
3.867926,6913
3.868922,5937
3.869924,5393
3.870938,6577
3.871932,7137
3.872926,7569
3.873924,6673
3.874924,5345
3.875924,5873
3.876925,6657
3.877923,5473
3.878924,5665
3.879924,6209
3.880922,5697
3.881926,5921
3.882924,5377
3.883924,5921
3.884924,5857
3.885923,5473
3.886923,6049
3.887925,6673
3.888924,6561
3.889925,5393
3.890925,6065
3.891924,6369
3.892921,5777
3.893924,5553
3.894925,5201
3.895924,6081
3.896925,6721
3.897924,5137
3.898925,5025
3.899924,7889
3.900924,6577
3.901924,5377
3.902924,6689
3.903925,6081
3.904924,5953
3.905924,6241
3.906923,5697
3.907924,5409
3.908924,5249
3.909924,6145
3.910924,5905
3.911924,5393
3.912924,5649
3.913926,4945
3.914921,6433
4.070079,6353
4.070657,5297
4.071020,5377
4.071362,6113
4.071699,5457
4.072107,6977
4.072439,6305
4.072776,5729
4.073118,6193
4.073474,6465
4.073810,6817
4.074155,6881
4.074491,6065
4.074922,5857
4.075924,7009
4.076925,5057
4.077925,4913
4.078923,5169
4.079926,5281
4.080924,6961
4.081922,5697
4.082925,5489
4.083927,6401
4.084923,5889
4.085925,5825
4.086925,5441
4.087924,5217
4.088922,6673
4.089924,6849
4.090924,7265
4.091926,4833
4.092923,5665
4.093922,5777
4.094926,5665
4.095924,5489
4.096926,5345
4.097924,5073
4.098926,6833
4.099924,6305
4.100924,5457
4.101924,5617
4.102924,5569
4.103925,5953
4.104924,6465
4.105923,7217
4.106926,6225
4.107926,4817
4.108922,5137
4.109924,6481
4.110924,6049
4.111923,6241
4.112924,7089
4.113924,5761
4.114926,5393
4.115923,6609
4.116924,5665
4.117925,5089
4.118925,5089
4.119926,5697
4.120925,6833
4.121925,6513
4.122927,5313
4.123924,6993
4.124924,6737
4.125924,6353
4.126998,5665
4.127933,7201
4.128928,5329
4.129924,5201
4.130925,5057
4.131922,5793
4.132926,9186
4.133923,6305
4.134924,6337
4.135924,6081
4.136922,5921
4.137926,4913
4.138926,4945
4.139926,5921
4.140923,7729
4.141927,6097
4.142922,5777
4.143923,5185
4.144923,6609
4.145924,6065
4.146924,5265
4.147924,5633
4.148924,5777
4.149923,6385
4.150925,5473
4.151924,4961
4.152925,6113
4.153923,6497
4.154924,5953
4.155925,5841
4.156923,5553
4.157926,4993
4.158924,8354
4.159924,6113
4.160924,5601
4.161925,5473
4.162924,5265
4.163924,6081
4.164926,5777
4.165923,5089
4.166924,6433
4.167925,5937
4.168924,6369
4.169924,5665
4.170924,4961
4.171925,5617
4.172925,6289
4.173923,6449
4.174925,5457
4.175924,5345
4.176924,5201
4.177924,5809
4.178924,5393
4.179924,5393
4.180925,7569
4.181924,6993
4.182925,6161
4.183924,6065
4.184925,5841
4.185924,5249
4.186925,5969
4.187925,7521
4.188924,7089
4.189981,5777
4.190940,6033
4.191926,6593
4.192924,5777
4.193923,5137
4.194923,5905
4.195923,6289
4.196926,6241
4.197926,5873
4.198924,5361
4.199924,5505
4.200924,5425
4.201924,5793
4.202924,5425
4.203923,6497
4.204924,6225
4.205924,6081
4.206924,6529
4.207927,6753
4.208924,6017
4.209923,6209
4.210924,5393
4.211925,5649
4.212925,5121
4.213925,5073
4.214924,7585
4.215924,5969
4.216924,5281
4.217924,6785
4.218926,6465
4.219925,5521
4.220923,6097
4.221925,4961
4.222923,5249
4.223925,5441
4.224926,6545
4.225926,8738
4.226925,6465
4.227924,5585
4.228924,5553
4.229924,5297
4.230924,5809
4.231926,5473
4.232925,6273
4.233924,6017
4.234924,6593
4.235926,5601
4.236924,5841
4.237926,5537
4.238926,6033
4.239924,5633
4.240924,4961
4.241925,5249
4.242924,5505
4.243924,6353
4.244924,6625
4.245924,6209
4.246926,4945
4.247922,5969
4.248924,5617
4.249924,5713
4.250924,5793
4.251923,5553
4.252923,6161
4.253923,6529
4.254938,6929
4.255923,5937
4.256924,5697
4.257924,5841
4.258924,6321
4.259924,5905
4.260922,5201
4.378226,6529
4.378981,4881
4.379498,4865
4.379996,6113
4.380490,7681
4.381049,6929
4.381542,6353
4.382033,5969
4.382679,6353
4.383206,6145
4.383696,5825
4.384191,6417
4.384681,5617
4.385179,4993
4.385670,5505
4.386164,6673
4.386924,6097
4.387924,5937
4.388926,5041
4.389925,5329
4.390925,8081
4.391924,6673
4.392924,6993
4.393923,5649
4.394925,5169
4.395926,6097
4.396925,5985
4.397925,5681
4.398925,5793
4.399925,5521
4.400924,5345
4.401924,6465
4.402923,5681
4.403926,5025
4.404924,8065
4.405925,5921
4.406925,5729
4.407925,6977
4.408924,6577
4.409922,6385
4.410924,5185
4.411923,6353
4.412926,5345
4.413926,5665
4.414924,5825
4.415924,6737
4.416924,5361
4.417924,6065
4.418922,5841
4.419923,5553
4.420924,6113
4.421924,4881
4.422923,6273
4.423924,6609
4.424922,5505
4.425925,7377
4.426925,5841
4.427924,6305
4.428925,7345
4.429925,6737
4.430925,5201
4.431925,5169
4.432924,5249
4.433924,6273
4.434926,7185
4.435924,5441
4.436925,5185
4.437923,5601
4.438926,5377
4.439925,5393
4.440924,6369
4.441923,5377
4.442923,5937
4.443924,6561
4.444925,6817
4.445923,5601
4.446938,6465
4.447931,5169
4.448926,5521
4.449925,6081
4.450922,5185
4.451923,6305
4.452926,6657
4.453925,6465
4.454922,6529
4.455923,5921
4.456924,5361
4.457923,6289
4.458925,5953
4.459924,6321
4.460927,6001
4.461924,5569
4.462924,5185
4.463924,6145
4.464924,6993
4.465924,6017
4.466925,5329
4.467921,6609
4.468924,7425
4.469924,5201
4.470924,5345
4.471924,5409
4.472924,5633
4.473924,5665
4.474924,6321
4.475925,5601
4.476925,5185
4.477922,7553
4.478924,6049
4.479924,5841
4.480925,7057
4.481924,6161
4.482922,6657
4.483926,6081
4.484923,5265
4.485925,5889
4.486926,5985
4.487926,6321
4.488925,5793
4.489925,5985
4.490925,5601
4.491924,5777
4.492924,5793
4.493924,6161
4.494924,5585
4.495924,6097
4.496923,6449
4.497924,6289
4.498923,6225
4.499925,5777
4.500923,5249
4.501926,5921
4.502924,5505
4.503925,6529
4.504924,6321
4.505924,6209
4.506924,6481
4.507925,6289
4.508926,6449
4.509925,7313
4.510943,6065
4.511929,5313
4.512926,5585
4.513925,5585
4.514925,6241
4.515923,6753
4.516924,6433
4.517924,6033
4.518925,5617
4.519925,5809
4.520925,5761
4.521924,5665
4.522924,6609
4.523925,5377
4.524923,5665
4.525925,6849
4.526926,6049
4.527923,5537
4.528924,5681
4.529925,6113
4.530925,5921
4.531925,5857
4.532924,6657
4.533924,5153
4.534924,5329
4.535924,7313
4.536927,5729
4.537924,5665
4.538924,5825
4.539924,5825
4.540925,5857
4.541924,5681
4.542925,5681
4.543924,5169
4.544923,7233
4.545922,6289
4.546924,6209
4.547924,5921
4.548924,5249
4.549922,6577
4.550926,5569
4.551923,6353
4.552924,5137
4.553923,5393
4.554925,5297
4.555926,6337
4.556923,6113
4.557924,7761
4.558926,6625
4.559924,5265
4.560927,5969
4.561924,5841
4.562923,6417
4.563925,5809
4.564922,6065
4.565925,5921
4.566924,5889
4.567925,5729
4.568922,5297
4.569925,5857
4.736516,5873
4.737425,7425
4.738115,7489
4.738771,6449
4.739415,6689
4.740127,5921
4.740768,5985
4.741414,6289
4.742060,6209
4.742718,6705
4.743364,6849
4.744011,5121
4.744657,5825
4.745308,6033
4.745958,5249
4.746606,5281
4.747252,4929
4.747925,6689
4.748574,6033
4.749227,5713
4.749875,5713
4.750526,6753
4.751179,7249
4.751924,7361
4.752924,6369
4.753924,6225
4.754924,6177
4.755924,6369
4.756923,5809
4.757923,6033
4.758924,5601
4.759925,5457
4.760922,6081
4.761924,5057
4.762924,5697
4.763925,5745
4.764924,5969
4.765926,7185
4.766940,6833
4.767929,6609
4.768926,5937
4.769922,6977
4.770925,4993
4.771924,5905
4.772924,6113
4.773922,8914
4.774924,7505
4.775924,6433
4.776923,5425
4.777924,7745
4.778923,7457
4.779924,6337
4.780924,5793
4.781925,5937
4.782925,6673
4.783923,5729
4.784924,6545
4.785925,6289
4.786926,6017
4.787925,5569
4.788925,5633
4.789923,5665
4.790923,6017
4.791925,6209
4.792926,6593
4.793924,5649
4.794925,5713
4.795922,6097
4.796924,6017
4.797924,6161
4.798923,6033
4.799926,5729
4.800924,5729
4.801924,5761
4.802923,6673
4.803925,5905
4.804925,6449
4.805924,6225
4.806924,5537
4.807922,6209
4.808925,7377
4.809925,7521
4.810924,5505
4.811925,6049
4.812924,5905
4.813924,6033
4.814924,5441
4.815924,5649
4.816923,5649
4.817922,7729
4.818924,7009
4.819925,7041
4.820922,6705
4.821925,5841
4.822926,6209
4.823926,5633
4.824925,5713
4.825924,5889
4.826926,6593
4.827924,5505
4.828924,6449
4.829924,6433
4.830946,6545
4.831927,6289
4.832924,5377
4.833925,5505
4.834926,5281
4.835924,6929
4.836924,6497
4.837922,6417
4.838925,5361
4.839926,6033
4.840925,7777
4.841923,6913
4.842925,6017
4.843925,5665
4.844925,6497
4.845922,6817
4.846924,5473
4.847923,5425
4.848923,6737
4.849924,5377
4.850925,7921
4.851924,6865
4.852926,5729
4.853924,5905
4.854924,6625
4.855926,5697
4.856925,5969
4.857923,6273
4.858926,5473
4.859925,6961
4.860924,6545
4.861926,6113
4.862925,5537
4.863927,5665
4.864923,6017
4.865925,5537
4.866925,5665
4.867922,6913
4.868925,7361
4.869923,6945
4.870926,5809
4.871924,6417
4.872925,6065
4.873924,6081
4.874925,5377
4.875924,6273
4.876923,5841
4.877925,5537
4.878923,5713
4.879923,6737
4.880925,6145
4.881924,5889
4.882923,6337
4.883924,6625
4.884923,5681
4.885923,6113
4.886925,6993
4.887923,6209
4.888924,6497
4.889924,6193
4.890923,6833
4.891925,5473
4.892924,5729
4.893924,6833
4.894940,7137
4.895930,6081
4.896929,5041
4.897925,6433
4.898924,6049
4.899923,6609
4.900926,5361
4.901924,6273
4.902923,7569
4.903924,7313
4.904925,5985
4.905924,6065
4.906925,6737
4.907925,6369
4.908924,5345
4.909925,6529
4.910924,5697
4.911925,5505
4.912925,6241
4.913924,6289
4.914925,6289
4.915924,6225
4.916926,5649
4.917927,6033
4.918922,6977
4.919924,5905
4.920922,5889
4.921924,6017
4.922925,6721
4.923922,6641
4.924922,6881
4.925925,6721
4.926924,5809
4.927925,5537
5.083448,5297
5.085541,7713
5.086673,7121
5.087541,5953
5.088359,6353
5.089241,6945
5.090051,6353
5.090857,6401
5.091668,5633
5.092497,6369
5.093304,7201
5.094118,7473
5.094927,5633
5.095736,5185
5.096546,6049
5.097361,8242
5.104703,5633
5.104946,6529
5.105159,5649
5.105371,7073
5.105580,5921
5.105792,7169
5.106006,6497
5.106221,6881
5.106431,5601
5.106643,6497
5.106925,5889
5.107924,6865
5.108926,5937
5.109925,5713
5.110923,8081
5.111924,6625
5.112923,6145
5.113926,6561
5.114924,6737
5.115924,6833
5.116924,6641
5.117925,6529
5.118923,6465
5.119924,6065
5.120923,6433
5.121925,6241
5.122925,5553
5.123923,6113
5.124925,5985
5.125925,6737
5.126924,5937
5.127924,6433
5.128925,5761
5.129924,5665
5.130922,6353
5.131924,6977
5.132924,7489
5.133924,6497
5.134924,6017
5.135925,6161
5.136926,6161
5.137926,6449
5.138923,6305
5.139924,6449
5.140927,5825
5.141923,6401
5.142925,6433
5.143921,7345
5.144924,6145
5.145923,5969
5.146925,5425
5.147924,5745
5.148924,6161
5.149922,7169
5.150938,5985
5.151936,6305
5.152927,6529
5.153924,5841
5.154923,5921
5.155926,6737
5.156924,6433
5.157924,6561
5.158924,6849
5.159924,6065
5.160923,6113
5.161925,6321
5.162924,7169
5.163923,6369
5.164925,6209
5.165924,5713
5.166924,5777
5.167924,7553
5.168926,7585
5.169926,6625
5.170924,6161
5.171924,6081
5.172925,5601
5.173924,7793
5.174924,6657
5.175923,6673
5.176926,6481
5.177922,6273
5.178924,6113
5.179924,6081
5.180923,6305
5.181924,6481
5.182924,6209
5.183923,6337
5.184924,6033
5.185923,6433
5.186926,6705
5.187925,7601
5.188924,5809
5.189925,5953
5.190925,7809
5.191923,7025
5.192924,6049
5.193924,6305
5.194926,6033
5.195925,6145
5.196923,5873
5.197925,6433
5.198923,6913
5.199922,7041
5.200925,6433
5.201924,5905
5.202922,6561
5.203925,7201
5.204925,6193
5.205924,6993
5.206926,6049
5.207924,6465
5.208924,5969
5.209926,5713
5.210924,6433
5.211925,8322
5.212922,5985
5.213925,5649
5.214943,6033
5.215928,6929
5.216924,6817
5.217922,6753
5.218925,5633
5.219926,7137
5.220924,7121
5.221924,6305
5.222925,6145
5.223923,6065
5.224925,6545
5.225923,7057
5.226924,7041
5.227926,5713
5.228925,6097
5.229924,6033
5.230925,5905
5.231925,6065
5.232925,5617
5.233925,5857
5.234924,7969
5.235924,7489
5.236925,5921
5.237924,5681
5.238924,7841
5.239924,7313
5.240924,6225
5.241924,6209
5.242924,6465
5.243925,7489
5.244922,7345
5.245925,6865
5.246924,6561
5.247924,6337
5.248923,6561
5.249925,6369
5.250924,6705
5.251922,6065
5.252926,5665
5.253924,6929
5.254924,5793
5.255924,5921
5.256924,8033
5.257926,7473
5.258923,6241
5.259925,6321
5.260924,6577
5.261924,6321
5.262924,6417
5.263925,6017
5.264924,6049
5.265924,6289
5.266924,6737
5.267924,5985
5.268923,7633
5.269924,6801
5.270924,6705
5.271924,6609
5.272926,5841
5.273923,6737
5.274923,7233
5.275924,5569
5.276924,6801
5.277925,7201
5.278943,6577
5.279929,5505
5.392085,7745
5.392701,7201
5.393101,6641
5.393471,6657
5.393834,5249
5.394275,4673
5.394637,5121
5.395011,6433
5.395373,8322
5.395759,6593
5.396128,7121
5.396489,5921
5.396855,6481
5.397227,6945
5.397924,6465
5.398924,6577
5.399922,6193
5.400926,6065
5.401924,7857
5.402924,6641
5.403924,6545
5.404925,6193
5.405925,7057
5.406949,6961
5.407926,6209
5.408923,6801
5.409924,7393
5.410923,5953
5.411924,6177
5.412922,6849
5.413924,6785
5.414924,7217
5.415926,6849
5.416923,6449
5.417925,6481
5.418925,6305
5.419926,6145
5.420925,7233
5.421923,7489
5.422923,6993
5.423925,6337
5.424925,6305
5.425925,6465
5.426924,6113
5.427924,6049
5.428925,7137
5.429925,7041
5.430924,6753
5.431924,6433
5.432924,6513
5.433924,6657
5.434925,6721
5.435925,6225
5.436924,6017
5.437924,6673
5.438923,8177
5.439925,6817
5.440924,7569
5.441925,5937
5.442925,6225
5.443924,6865
5.444925,6609
5.445922,7329
5.446924,6977
5.447924,6641
5.448926,6033
5.449923,6353
5.450923,7041
5.451924,6577
5.452923,6449
5.453925,5969
5.454923,6449
5.455924,6481
5.456925,7073
5.457923,6625
5.458926,6193
5.459924,7457
5.460925,7569
5.461924,7601
5.462925,6785
5.463925,6897
5.464924,6497
5.465922,6769
5.466924,6529
5.467924,6385
5.468925,7137
5.469921,6433
5.470940,5585
5.471928,5873
5.472924,6305
5.473925,7105
5.474925,6657
5.475922,6033
5.476926,7185
5.477923,6801
5.478924,6449
5.479924,6097
5.480924,6993
5.481924,7009
5.482924,6737
5.483926,6593
5.484922,7313
5.485925,6417
5.486925,6561
5.487923,6593
5.488924,5873
5.489923,6577
5.490926,6353
5.491923,5425
5.492924,7441
5.493926,6689
5.494924,6673
5.495924,6561
5.496925,7089
5.497923,7441
5.498924,6481
5.499924,6193
5.500924,6065
5.501923,6337
5.502923,7697
5.503924,7073
5.504924,6945
5.505924,6977
5.506924,6865
5.507926,7441
5.508925,6273
5.509925,6097
5.510924,6353
5.511924,5985
5.512923,6817
5.513925,7553
5.514925,7041
5.515924,6785
5.516924,6385
5.517923,7521
5.518924,6337
5.519924,6705
5.520923,6833
5.521926,6817
5.522926,6305
5.523922,5537
5.524925,6209
5.525925,6609
5.526924,6129
5.527922,6097
5.528925,5921
5.529926,8930
5.530923,7377
5.531924,7681
5.532923,6881
5.533924,6945
5.534943,6673
5.535931,6257
5.536926,6865
5.537926,6785
5.538922,6241
5.539925,5601
5.540925,6705
5.541923,7745
5.542924,7185
5.543924,6529
5.544925,6737
5.545924,6593
5.546924,6257
5.547922,7169
5.548925,7841
5.549923,6545
5.550925,6337
5.551924,6689
5.552925,7313
5.553924,6401
5.554926,6641
5.555923,6481
5.556924,6881
5.557925,6385
5.558925,7201
5.559924,7585
5.560924,6305
5.561925,6225
5.562924,6193
5.563926,7217
5.564925,6289
5.565923,6753
5.566924,6705
5.567925,6737
5.568924,6609
5.569926,6721
5.570924,6625
5.571923,5457
5.572925,6049
5.573924,6465
5.574924,6337
5.575923,8402
5.576924,7761
5.577924,7185
5.578926,6897
5.579924,6737
5.580926,6113
5.581924,6049
5.582925,6433
5.745008,5553
5.745781,7025
5.746354,7057
5.746884,5681
5.747407,7169
5.747998,6273
5.748514,6049
5.749036,6289
5.749561,6657
5.750102,7041
5.750618,5377
5.751145,5105
5.751664,5425
5.752193,6897
5.752715,6033
5.753243,6017
5.753764,6561
5.754316,8322
5.754924,7745
5.755924,6657
5.756924,6977
5.757925,6753
5.758924,5729
5.759922,6097
5.760925,7249
5.761923,6065
5.762925,6161
5.763925,5329
5.764924,7185
5.765924,8145
5.766927,7729
5.767924,6625
5.768923,7009
5.769923,6865
5.770924,7217
5.771923,6753
5.772924,6273
5.773925,6961
5.774925,6929
5.775925,6529
5.776925,6017
5.777924,7249
5.778925,6769
5.779923,6321
5.780923,6865
5.781924,6721
5.782925,6785
5.783925,6561
5.784925,6321
5.785924,6321
5.786924,5937
5.787924,6577
5.788924,6177
5.789924,6721
5.790948,8338
5.791930,7457
5.792927,7217
5.793926,7649
5.794923,6273
5.795927,5025
5.796925,6321
5.797926,6497
5.798924,8065
5.799927,6865
5.800923,6145
5.801923,6209
5.802924,7185
5.803922,6993
5.804924,7521
5.805925,6401
5.806925,6657
5.807924,6177
5.808925,6497
5.809924,7489
5.810925,6209
5.811923,5009
5.812922,5825
5.813924,7649
5.814925,6913
5.815925,6353
5.816923,7473
5.817925,8129
5.818923,6881
5.819924,6481
5.820924,8017
5.821925,7441
5.822924,6657
5.823924,6561
5.824924,6561
5.825925,6257
5.826926,6641
5.827922,6833
5.828922,6625
5.829924,6353
5.830925,6801
5.831923,7665
5.832923,6321
5.833926,6177
5.834924,5793
5.835925,6689
5.836926,6065
5.837924,6145
5.838924,9042
5.839925,8113
5.840927,8466
5.841925,8786
5.842923,6081
5.843924,5921
5.844924,6449
5.845926,6481
5.846924,5921
5.847926,6993
5.848924,7425
5.849923,6049
5.850924,6625
5.851924,6753
5.852924,7969
5.853925,6801
5.854939,6433
5.855928,7265
5.856928,6481
5.857926,6689
5.858924,6785
5.859924,5057
5.860924,6369
5.861924,7265
5.862922,6865
5.863924,9506
5.864924,8498
5.865924,6353
5.866926,6369
5.867924,6065
5.868926,6577
5.869924,7953
5.870925,6305
5.871926,7553
5.872925,6369
5.873926,6497
5.874925,6561
5.875925,6529
5.876923,6033
5.877924,6721
5.878923,7521
5.879926,6321
5.880925,6289
5.881924,7825
5.882923,7713
5.883925,7617
5.884925,8145
5.885924,7473
5.886923,6689
5.887924,6337
5.888924,6273
5.889926,6049
5.890926,6849
5.891924,6017
5.892924,7249
5.893925,6289
5.894924,7745
5.895924,8850
5.896923,7121
5.897924,6993
5.898924,7857
5.899926,8145
5.900925,6561
5.901922,6017
5.902923,7569
5.903925,7313
5.904925,5889
5.905925,6177
5.906923,5857
5.907922,5409
5.908925,7169
5.909926,6497
5.910923,7425
5.911925,7889
5.912925,5873
5.913924,6305
5.914922,5809
5.915925,7697
5.916926,6849
5.917924,5921
5.918937,6449
5.919930,8177
5.920924,8370
5.921924,8834
5.922925,10418
5.923924,7713
5.924925,7617
5.925925,6081
5.926926,6273
5.927924,8626
5.928924,12371
5.929924,12787
5.930926,7105
5.931924,7905
5.932924,6993
5.933924,8450
5.934924,10306
5.935925,7249
6.093876,7537
6.094830,6625
6.095542,6913
6.096220,10786
6.096891,5697
6.097629,9618
6.098300,16852
6.098974,12178
6.099646,12210
6.100342,11410
6.101022,7473
6.101695,6097
6.102374,12387
6.103055,16772
6.103733,8546
6.104410,19924
6.105095,27910
6.105792,28983
6.106475,24998
6.107156,25190
6.107834,18372
6.108512,12611
6.109197,5137
6.109876,10594
6.110559,11218
6.111412,11122
6.112106,11602
6.112926,14355
6.113924,6753
6.114923,6209
6.115922,7265
6.116926,8177
6.117925,7905
6.118925,9218
6.119924,5329
6.120925,6289
6.121926,5921
6.122925,7153
6.123924,17556
6.124924,7489
6.125925,11778
6.126924,10786
6.127925,4737
6.128923,4833
6.129924,10994
6.130924,12579
6.131923,12723
6.132925,8498
6.133924,17492
6.134924,7105
6.135923,29831
6.136924,28118
6.137925,17220
6.138924,5569
6.139922,25350
6.140925,21669
6.141924,13411
6.142926,7313
6.143924,5329
6.144925,7377
6.145922,8514
6.146923,10642
6.147925,5681
6.148924,18996
6.149924,12467
6.150924,5185
6.151925,5953
6.152924,4945
6.153925,5665
6.154923,8210
6.155924,13155
6.156923,5521
6.157924,7745
6.158922,5041
6.159924,7553
6.160924,13651
6.161923,5585
6.162923,5473
6.163924,7105
6.164923,7217
6.165925,9314
6.166925,8546
6.167925,8081
6.168924,10466
6.169924,12419
6.170926,10066
6.171925,10306
6.172926,10930
6.173924,8770
6.174941,11410
6.175926,6449
6.176926,6193
6.177924,5265
6.178925,7633
6.179925,5201
6.180926,8466
6.181926,8097
6.182923,12371
6.183924,7857
6.184924,5889
6.185923,5345
6.186925,5921
6.187924,7105
6.188924,14371
6.189924,8674
6.190925,9314
6.191922,5393
6.192923,8226
6.193924,5793
6.194922,6417
6.195924,12034
6.196925,5137
6.197922,5137
6.198926,7953
6.199924,8177
6.200923,4913
6.201924,8065
6.202923,10802
6.203924,9858
6.204923,16660
6.205924,15267
6.206924,28150
6.207923,25318
6.208925,5521
6.209926,11794
6.210924,16067
6.211924,16836
6.212925,50108
6.213923,11874
6.214924,12963
6.215924,22965
6.216926,27414
6.217924,12883
6.218924,5297
6.219924,24614
6.220927,13651
6.221924,14947
6.222926,6593
6.223925,16468
6.224922,16163
6.225924,8081
6.226925,8177
6.227923,6689
6.228923,9378
6.229924,6625
6.230923,8258
6.231925,19972
6.232924,7185
6.233925,5713
6.234924,7089
6.235926,12947
6.236925,27142
6.237924,11650
6.238940,7121
6.239930,12114
6.240926,15555
6.241924,5409
6.242922,13699
6.243924,8658
6.244924,5329
6.245924,9378
6.246924,9154
6.247924,7345
6.248925,5249
6.249924,15427
6.250922,6993
6.251924,21669
6.252924,15011
6.253926,21397
6.254926,6289
6.255925,11042
6.256925,11058
6.257923,6401
6.258922,7393
6.259924,7905
6.260926,8626
6.261925,18068
6.262926,16676
6.263922,13011
6.264925,6321
6.265925,5057
6.266924,8113
6.267924,6545
6.268925,16452
6.269923,8033
6.270924,8177
6.271922,4865
6.272924,9090
6.273924,12515
6.274924,6993
6.275924,21269
6.276925,10770
6.277924,8177
6.278926,8738
6.279924,10402
6.280924,17412
6.281924,5441
6.282923,22229
6.283926,19892
6.284925,12307
6.445456,10354
6.445961,10338
6.446220,6209
6.446453,6177
6.446687,8754
6.446949,12034
6.447183,13107
6.447416,21829
6.447645,28326
6.447902,29207
6.448135,20180
6.448924,8482
6.449923,7169
6.450925,20436
6.451926,30423
6.452924,21189
6.453923,6641
6.454925,21589
6.455925,16163
6.456924,12499
6.457924,12323
6.458925,8770
6.459922,9778
6.460925,10050
6.461925,19524
6.462922,6913
6.463924,17748
6.464923,32824
6.465924,21525
6.466926,5633
6.467924,5889
6.468923,11394
6.469924,7649
6.470924,6225
6.471925,19924
6.472924,7105
6.473926,6033
6.474924,8274
6.475923,5521
6.476924,9346
6.477924,5633
6.478924,7745
6.479926,6289
6.480924,5761
6.481924,14883
6.482926,13123
6.483924,17172
6.484925,40297
6.485923,6321
6.486923,34488
6.487924,17268
6.488924,30023
6.489924,24277
6.490922,6945
6.491925,7473
6.492924,7537
6.493926,18660
6.494948,28166
6.495933,11490
6.496927,5153
6.497924,15843
6.498922,7761
6.499925,8450
6.500924,22229
6.501923,9106
6.502924,28967
6.503924,10210
6.504927,6497
6.505925,6225
6.506924,9026
6.507924,5233
6.508924,11970
6.509924,11426
6.510924,31271
6.511923,6049
6.512924,13603
6.513923,9426
6.514923,8001
6.515923,10114
6.516923,29143
6.517924,23989
6.518922,14803
6.519925,5761
6.520924,24309
6.521926,34856
6.522924,42074
6.523922,6929
6.524924,10706
6.525923,26630
6.526926,16692
6.527922,6929
6.528924,10082
6.529924,6497
6.530924,15107
6.531925,14355
6.532924,15683
6.533922,15347
6.534924,8338
6.535923,8402
6.536925,7681
6.537926,6193
6.538924,5681
6.539926,6273
6.540923,6449
6.541924,24598
6.542923,37833
6.543924,8386
6.544924,5841
6.545923,5729
6.546923,14547
6.547924,7985
6.548923,5521
6.549924,13059
6.550924,7217
6.551924,7425
6.552925,8338
6.553924,20805
6.554924,5681
6.555923,7985
6.556925,12803
6.557924,9522
6.558939,15203
6.559926,5393
6.560926,10514
6.561926,29575
6.562924,7057
6.563926,26662
6.564923,11490
6.565925,21669
6.566924,23125
6.567922,6017
6.568926,28054
6.569922,6577
6.570926,12627
6.571924,22837
6.572924,9938
6.573925,9634
6.574925,30295
6.575922,26006
6.576924,11538
6.577925,7681
6.578923,12851
6.579924,31527
6.580924,41946
6.581923,43194
6.582924,12098
6.583924,31687
6.584925,59790
6.585925,65535
6.586925,36953
6.587924,14611
6.588924,7441
6.589924,5985
6.590926,13987
6.591923,28454
6.592923,23173
6.593926,47323
6.594925,14035
6.595922,12082
6.596925,17876
6.597924,24806
6.598924,31975
6.599926,31959
6.600924,10466
6.601924,25990
6.602922,29799
6.603924,20709
6.604923,11826
6.605923,11154
6.606924,5777
6.607922,5585
6.608924,29431
6.609924,5393
6.610925,39257
6.611924,15331
6.612925,18916
6.613923,10850
6.614926,5313
6.615924,38617
6.616923,6737
6.617924,5393
6.618925,24582
6.619924,34904
6.620925,10498
6.621924,34952
6.622955,42698
6.623932,9282
6.624926,8402
6.625923,15907
6.626925,40185
6.627924,12274
6.628924,11778
6.629923,9106
6.630926,10434
6.631924,11650
6.632923,5905
6.633924,14787
6.634924,20533
6.635924,9266
6.636927,23301
6.794447,27094
6.795105,18276
6.795520,15251
6.795918,11986
6.796310,10066
6.796760,27350
6.797150,37273
6.797534,52108
6.797920,41946
6.798320,28038
6.798710,32039
6.799101,18884
6.799487,7313
6.799926,9170
6.800923,12707
6.801926,10482
6.802927,8065
6.803925,7889
6.804926,26726
6.805923,23893
6.806924,11426
6.807922,40601
6.808923,19732
6.809924,11010
6.810925,47899
6.811923,10754
6.812924,35896
6.813923,56061
6.814945,23589
6.815928,5761
6.816925,23189
6.817923,5633
6.818924,6401
6.819923,30535
6.820924,7361
6.821924,15635
6.822925,21973
6.823925,17860
6.824923,19780
6.825924,16916
6.826924,27078
6.827926,9826
6.828924,9698
6.829925,31175
6.830924,14595
6.831924,9538
6.832926,10402
6.833921,6593
6.834924,29351
6.835923,9698
6.836925,15651
6.837925,8802
6.838925,17108
6.839924,7889
6.840924,25414
6.841924,33992
6.842924,10466
6.843922,43578
6.844923,30407
6.845922,15907
6.846926,7729
6.847922,14227
6.848923,8594
6.849925,37577
6.850924,31511
6.851924,8177
6.852926,11842
6.853922,14563
6.854926,24341
6.855924,14995
6.856924,5537
6.857924,9314
6.858926,6033
6.859924,9282
6.860927,6145
6.861922,6785
6.862925,17940
6.863925,7217
6.864923,5809
6.865924,9858
6.866922,7809
6.867926,38025
6.868923,17380
6.869925,13235
6.870923,6673
6.871925,25558
6.872923,6305
6.873924,5777
6.874922,19204
6.875926,26438
6.876922,15827
6.877924,12675
6.878939,7329
6.879933,11794
6.880927,9346
6.881926,6417
6.882925,8258
6.883925,8274
6.884926,8049
6.885926,12643
6.886922,17764
6.887922,20981
6.888925,9346
6.889923,15379
6.890923,6609
6.891922,23605
6.892924,5697
6.893923,18468
6.894924,32711
6.895925,8177
6.896924,11474
6.897923,5857
6.898924,6017
6.899924,7393
6.900924,11394
6.901924,5841
6.902922,7041
6.903925,7841
6.904926,48011
6.905924,7345
6.906924,7217
6.907926,41226
6.908923,9538
6.909925,5665
6.910923,6481
6.911924,5681
6.912923,6449
6.913923,37049
6.914924,24998
6.915924,41418
6.916924,32103
6.917922,5905
6.918923,6385
6.919924,58286
6.920924,27430
6.921922,44682
6.922925,37385
6.923924,49356
6.924923,16019
6.925925,16612
6.926925,12194
6.927923,30695
6.928924,9778
6.929922,11954
6.930925,15283
6.931922,24758
6.932924,27782
6.933924,22581
6.934926,18148
6.935925,6945
6.936924,34760
6.937922,14755
6.938924,36985
6.939925,6545
6.940926,8145
6.941923,7361
6.942941,8834
6.943931,31143
6.944926,33160
6.945928,8514
6.946924,9490
6.947926,25622
6.948925,36440
6.949925,18260
6.950925,11218
6.951924,5841
6.952923,15779
6.953922,23637
6.954924,6545
6.955926,8402
6.956924,35992
6.957923,52028
6.958924,30167
6.959924,20020
6.960924,40761
6.961923,9522
6.962924,14899
6.963924,6545
6.964922,25494
6.965926,14659
6.966924,12755
6.967925,50620
6.968924,33720
6.969925,33064
6.970925,24918
6.971923,24133
6.972923,30407
6.973922,9170
6.974924,6177
6.975925,6865
6.976924,14355
6.977924,41386
6.978924,22693
6.979924,5985
6.980924,28823
6.981923,41290
6.982925,6337
6.983924,16596
6.984925,6609
6.985924,5873
7.155231,9426
7.156027,24069
7.156596,49724
7.157147,33304
7.157684,10386
7.158297,5281
7.158835,8418
7.159379,5393
7.159922,6625
7.160478,6881
7.161021,9810
7.161562,13859
7.162108,14371
7.162649,12419
7.163195,8129
7.163735,13491
7.164286,27590
7.164925,43018
7.165926,30743
7.166924,11570
7.167924,7969
7.168921,32215
7.169925,36456
7.170924,20292
7.171924,23413
7.172925,8770
7.173924,15027
7.174925,20501
7.175925,10322
7.176925,6673
7.177924,21813
7.178923,60190
7.179922,10882
7.180925,9602
7.181925,33176
7.182922,8578
7.183926,5297
7.184926,17220
7.185923,20789
7.186923,6049
7.187924,9922
7.188924,6801
7.189924,31655
7.190924,20436
7.191924,12451
7.192924,8177
7.193924,6577
7.194922,22789
7.195926,18084
7.196924,9778
7.197923,7825
7.198943,7441
7.199929,8177
7.200926,12595
7.201925,32087
7.202925,42058
7.203924,12595
7.204924,60750
7.205923,48571
7.206924,6609
7.207925,8946
7.208923,9330
7.209924,15027
7.210924,30487
7.211923,8882
7.212922,7313
7.213925,34008
7.214924,7937
7.215923,13267
7.216926,12274
7.217924,21637
7.218925,33880
7.219925,23861
7.220925,9410
7.221923,11010
7.222924,7473
7.223924,16820
7.224926,30055
7.225924,28598
7.226927,9826
7.227923,6353
7.228926,13491
7.229923,34376
7.230925,31639
7.231925,6529
7.232925,17188
7.233924,26294
7.234921,11266
7.235924,15171
7.236923,6737
7.237925,12499
7.238923,5585
7.239925,17764
7.240925,8546
7.241923,11810
7.242924,35032
7.243924,8418
7.244924,17204
7.245926,30855
7.246923,33576
7.247924,15811
7.248925,7137
7.249924,20565
7.250922,65535
7.251924,62511
7.252923,15763
7.253924,25878
7.254924,26694
7.255926,25734
7.256925,16019
7.257924,9362
7.258924,37849
7.259925,15891
7.260924,8177
7.261924,5665
7.262943,29863
7.263931,6177
7.264924,5825
7.265924,45979
7.266924,10210
7.267924,12963
7.268924,8738
7.269924,6673
7.270925,25542
7.271923,7329
7.272926,30599
7.273923,11330
7.274924,21525
7.275924,13123
7.276924,6017
7.277925,15891
7.278924,6273
7.279923,29719
7.280927,41770
7.281926,6801
7.282924,14339
7.283924,30439
7.284923,29623
7.285924,6545
7.286924,11266
7.287925,12002
7.288922,6241
7.289924,6273
7.290922,8177
7.291925,11122
7.292925,10706
7.293925,34536
7.294925,14211
7.295925,11266
7.296926,26550
7.297924,7089
7.298924,15251
7.299922,11730
7.300925,6609
7.301924,14035
7.302923,13459
7.303925,6833
7.304926,8738
7.305926,7825
7.306922,13507
7.307924,6545
7.308924,5969
7.309925,11618
7.310925,6881
7.311924,8194
7.312923,9346
7.313924,11346
7.314923,25286
7.315924,11282
7.316922,8882
7.317924,36280
7.318924,37961
7.319926,20356
7.320922,15363
7.321924,12098
7.322924,10850
7.323925,23173
7.324926,5729
7.325925,10322
7.326941,7985
7.327934,20132
7.328927,34616
7.329926,27494
7.330926,17284
7.331921,8177
7.332923,35624
7.333925,34360
7.334922,7201
7.335924,6081
7.336924,7841
7.337925,8898
7.338923,26854
7.339922,40921
7.340923,7361
7.341924,29159
7.342926,48107
7.343927,24646
7.344925,36200
7.345924,23029
7.346923,13987
7.500652,9090
7.501610,14979
7.502350,11266
7.503055,10466
7.503750,8802
7.504517,10018
7.505221,20725
7.505922,21861
7.506620,6929
7.507343,8033
7.508046,20821
7.508746,34872
7.509448,19044
7.510153,13283
7.510853,6401
7.511563,6401
7.512271,6737
7.513002,8850
7.513705,14163
7.514418,6657
7.515133,11650
7.515840,22997
7.516551,13651
7.517265,26310
7.517975,18580
7.518815,34120
7.519542,8210
7.520260,20949
7.520975,6721
7.521926,37721
7.522926,29959
7.523923,26518
7.524925,7393
7.525924,5905
7.526924,24037
7.527926,6113
7.528926,15699
7.529922,10050
7.530924,11682
7.531924,13315
7.532923,39561
7.533924,12066
7.534924,58654
7.535923,37593
7.536924,8177
7.537925,9602
7.538926,13219
7.539923,12995
7.540926,8177
7.541923,8242
7.542924,11698
7.543926,6033
7.544923,25558
7.545924,21381
7.546924,36744
7.547924,23429
7.548923,65535
7.549926,41146
7.550923,21973
7.551925,13123
7.552923,8210
7.553923,15635
7.554925,7873
7.555926,8706
7.556924,14355
7.557925,8754
7.558926,11186
7.559925,30871
7.560924,16179
7.561927,13539
7.562924,23077
7.563922,7233
7.564925,12050
7.565924,12210
7.566924,14227
7.567924,9394
7.568924,7969
7.569926,5665
7.570923,6881
7.571926,9170
7.572926,18292
7.573922,42330
7.574923,6833
7.575924,10178
7.576925,31639
7.577925,26246
7.578927,6577
7.579924,9858
7.580926,26198
7.581924,37257
7.582943,7377
7.583933,30247
7.584924,15603
7.585927,14099
7.586925,21077
7.587925,28134
7.588923,12098
7.589925,12579
7.590924,8770
7.591924,10146
7.592926,6305
7.593921,16083
7.594923,7953
7.595922,7329
7.596925,24582
7.597925,24485
7.598925,11218
7.599926,6001
7.600922,7057
7.601924,7441
7.602926,11602
7.603924,10002
7.604923,15539
7.605924,34264
7.606924,20997
7.607922,15251
7.608926,14995
7.609924,47787
7.610924,34600
7.611924,6497
7.612925,6225
7.613924,5921
7.614926,23589
7.615924,31463
7.616924,11762
7.617924,9282
7.618924,30919
7.619924,55469
7.620923,42602
7.621925,6817
7.622924,14339
7.623923,9026
7.624924,10562
7.625923,8450
7.626922,26950
7.627925,6849
7.628924,12355
7.629927,15235
7.630926,14307
7.631924,62447
7.632924,21733
7.633924,34120
7.634923,11522
7.635924,24565
7.636923,27846
7.637924,15027
7.638926,22981
7.639924,7649
7.640924,23877
7.641924,5889
7.642924,8274
7.643925,29527
7.644924,17764
7.645923,13491
7.646937,12755
7.647928,26918
7.648926,19220
7.649923,6721
7.650926,18628
7.651926,12995
7.652925,10882
7.653924,21717
7.654927,6417
7.655924,10338
7.656924,29319
7.657925,42042
7.658924,24069
7.659924,9010
7.660925,32535
7.661924,65535
7.662925,37833
7.663925,18708
7.664926,11970
7.665924,12210
7.666923,7969
7.677524,20036
7.677747,11554
7.677960,7041
7.678166,16468
7.678374,23605
7.678587,27638
7.678802,31847
7.679023,32071
7.679235,28951
7.679447,31015
7.679925,40633
7.680925,14147
7.681924,28422
7.682924,8658
7.683926,26246
7.684925,6817
7.685924,16612
7.686923,11106
7.687925,15795
7.688921,25830
7.689925,8177
7.690925,16852
7.691923,28839
7.692925,7473
7.693923,7441
7.808999,11938
7.809517,8258
7.809825,6433
7.810124,8145
7.810403,8850
7.810751,7521
7.811036,7009
7.811311,11362
7.811590,12643
7.811891,12963
7.812171,12675
7.812452,9474
7.812924,6769
7.813925,8001
7.814924,9234
7.815926,10114
7.816924,10658
7.817924,6545
7.818926,6577
7.819924,8177
7.820922,15827
7.821924,7137
7.822925,15011
7.823924,10834
7.824924,12755
7.825924,14755
7.826924,23685
7.827924,6225
7.828926,6753
7.829926,15571
7.830922,32071
7.831924,15123
7.832924,12611
7.833926,8834
7.834924,10274
7.835924,14419
7.836924,24870
7.837926,9298
7.838946,22277
7.839928,12307
7.840923,27270
7.841924,30407
7.842924,12691
7.843925,30023
7.844924,24742
7.845925,6897
7.846922,53261
7.847924,10562
7.848923,43482
7.849925,6849
7.850924,11650
7.851925,6673
7.852925,7617
7.853923,8626
7.854923,45291
7.855925,15747
7.856924,24485
7.857924,11714
7.858923,8450
7.859926,6801
7.860926,12226
7.861922,9138
7.862927,6193
7.863924,6417
7.864926,8562
7.865923,31687
7.866926,10130
7.867922,37129
7.868927,11090
7.869925,19604
7.870924,21861
7.871923,8322
7.872924,11394
7.873924,13795
7.874922,7457
7.875925,6193
7.876925,8210
7.877925,11298
7.878924,7729
7.879922,10482
7.880925,9298
7.881923,7601
7.882924,6737
7.883923,9682
7.884925,6545
7.885925,13315
7.886924,9762
7.887925,13347
7.888925,6833
7.889922,9666
7.890924,7377
7.891924,8338
7.892924,14947
7.893924,6721
7.894925,16964
7.895924,42602
7.896924,39721
7.897922,7585
7.898924,8658
7.899925,8177
7.900923,8530
7.901954,9426
7.902931,12050
7.903926,26486
7.904925,11298
7.905922,10274
7.906924,8161
7.907922,17876
7.908924,7489
7.909924,46859
7.910924,16948
7.911924,18228
7.912923,10578
7.913924,9058
7.914924,7985
7.915924,25158
7.916926,35464
7.917922,8530
7.918924,28358
7.919926,14275
7.920924,6593
7.921923,8930
7.922925,8226
7.923922,13251
7.924924,10898
7.925924,9954
7.926926,42954
7.927925,23909
7.928923,8834
7.929925,24117
7.930925,8930
7.931924,24453
7.932924,18116
7.933925,10946
7.934924,9810
7.935924,11522
7.936923,13587
7.937924,11042
7.938923,12082
7.939924,6305
7.940922,22853
7.941923,52620
7.942923,26966
7.943926,13155
7.944924,16259
7.945923,6545
7.946925,14131
7.947923,7169
7.948925,14035
7.949924,12867
7.950924,7841
7.951924,9778
7.952925,10450
7.953923,15859
7.954926,17476
7.955925,26182
7.956926,9106
7.957924,6337
7.958924,6993
7.959927,8994
7.960924,11682
7.961924,11954
7.962923,12387
7.963924,17556
7.964926,8017
7.965969,5937
7.966930,16388
7.967928,40073
7.968925,46939
7.969923,11746
7.970924,16996
7.971925,7377
7.972924,12114
7.973923,10434
7.974924,12339
7.975924,10114
7.976924,29111
7.977923,14691
7.978924,12002
7.979922,15203
7.980925,26582
7.981923,11138
7.982924,11618
7.983925,30055
7.984924,56973
7.985924,38697
7.986924,20180
7.987925,12563
7.988924,15011
7.989925,10210
7.990924,12707
7.991926,8610
7.992925,27094
7.993925,22453
7.994924,7185
7.995924,9682
7.996924,6385
7.997925,6977
7.998924,41546
7.999924,15139
8.162707,24405
8.163415,27702
8.163880,27062
8.164322,29527
8.164754,15299
8.165262,8962
8.165696,8177
8.166132,20116
8.166564,17588
8.167021,14163
8.167459,10306
8.167894,12947
8.168329,14563
8.168762,26966
8.169200,32535
8.169923,21989
8.170924,8962
8.171922,6737
8.172922,11954
8.173924,12435
8.174925,14691
8.175926,6753
8.176924,6625
8.177925,8145
8.178923,7633
8.179924,5137
8.180926,6497
8.181923,13475
8.182924,24117
8.183925,26086
8.184926,11506
8.185924,17508
8.186924,6353
8.187925,10802
8.188924,10818
8.189926,12403
8.190924,7009
8.191923,10706
8.192924,20693
8.193923,12307
8.194925,13795
8.195924,10562
8.196923,10594
8.197924,10674
8.198926,8177
8.199923,17780
8.200926,6961
8.201923,12835
8.202926,12627
8.203924,30903
8.204923,6449
8.205924,15011
8.206926,6593
8.207924,9682
8.208926,12979
8.209924,14435
8.210924,8850
8.211925,7889
8.212924,9666
8.213923,22501
8.214921,11826
8.215925,25926
8.216926,23061
8.217923,13539
8.218923,25670
8.219926,35912
8.220924,28406
8.221923,7729
8.222946,54221
8.223935,65535
8.224927,47259
8.225926,6993
8.226924,14451
8.227927,35096
8.228926,22165
8.229924,11426
8.230925,6785
8.231924,17652
8.232924,10674
8.233925,6593
8.234923,8242
8.235924,30151
8.236926,10546
8.237925,10882
8.238923,11042
8.239923,14259
8.240926,10578
8.241925,8530
8.242925,31831
8.243926,8626
8.244921,6049
8.245925,32311
8.246924,16003
8.247922,15795
8.248925,20581
8.249926,11714
8.250924,16099
8.251924,11106
8.252925,11426
8.253926,13059
8.254923,18324
8.255925,18404
8.256924,12563
8.257924,12098
8.258925,13827
8.259924,28374
8.260924,8658
8.261925,19556
8.262924,13155
8.263925,8242
8.264926,14531
8.265923,6865
8.266925,10450
8.267925,55725
8.268923,8706
8.269924,30471
8.270925,25030
8.271924,24069
8.272926,31271
8.273925,43914
8.274922,12819
8.275924,11730
8.276924,12979
8.277925,13075
8.278925,9010
8.279924,34792
8.280923,13875
8.281925,10658
8.282924,15779
8.283924,7361
8.284924,6401
8.285925,32792
8.286943,9410
8.287928,7969
8.288924,19284
8.289924,8930
8.290923,8177
8.291923,16484
8.292923,11138
8.293924,8834
8.294924,12435
8.295922,8322
8.296924,6513
8.297926,10770
8.298924,30023
8.299923,11746
8.300925,31559
8.301924,22837
8.302924,13315
8.303923,29623
8.304924,7425
8.305926,7185
8.306924,18308
8.307922,6017
8.308923,21317
8.309923,21221
8.310925,6353
8.311925,10146
8.312926,12739
8.313925,16275
8.314923,11410
8.315926,12226
8.316924,12162
8.317924,16932
8.318925,8498
8.319926,12242
8.320923,13363
8.321924,6289
8.322924,7937
8.323924,7233
8.324926,6833
8.325924,6529
8.326925,8962
8.327923,8177
8.328924,8498
8.329927,10690
8.330927,7377
8.331925,30455
8.332924,27302
8.333924,8418
8.334924,30599
8.335924,24726
8.336925,17156
8.337925,17460
8.338923,6369
8.339925,19844
8.340924,8658
8.341923,5921
8.342924,9570
8.343924,40409
8.344925,19684
8.345924,9618
8.346924,26710
8.347923,28310
8.348923,9522
8.349924,60142
8.350940,59870
8.351929,29959
8.352925,10514
8.353924,13955
8.510147,29783
8.510991,13859
8.511609,12194
8.512210,12451
8.512800,11826
8.513454,15667
8.514048,41722
8.514632,34216
8.515220,40953
8.515819,21397
8.516409,7521
8.517003,8578
8.517589,14051
8.518183,12226
8.518774,22261
8.519367,27494
8.519959,25750
8.520573,43354
8.521168,55821
8.521926,22597
8.522925,17460
8.523924,34328
8.524924,65535
8.525923,65535
8.526925,10514
8.527923,13507
8.528925,31671
8.529924,16532
8.530923,14627
8.531924,5569
8.532923,5601
8.533924,10802
8.534926,16772
8.535924,12226
8.536925,9506
8.537924,20100
8.538924,9042
8.539922,15395
8.540924,7217
8.542041,20789
8.542927,13491
8.543926,13411
8.544922,12835
8.545924,15555
8.546923,17636
8.547924,5985
8.548922,9026
8.549925,22693
8.550922,11970
8.551923,10706
8.552924,21957
8.553923,28342
8.554924,27046
8.555923,7185
8.556925,21861
8.557925,29399
8.558925,27462
8.559922,29943
8.560925,23717
8.561924,34360
8.562924,11010
8.563924,19924
8.564924,9778
8.565924,5793
8.566927,13043
8.567924,15315
8.568924,22885
8.569925,7297
8.570923,7329
8.571926,16740
8.572922,8930
8.573924,24517
8.574924,11442
8.575925,11698
8.576922,13491
8.577926,8930
8.578924,6945
8.579925,9730
8.580926,8866
8.581924,13747
8.582926,7329
8.583924,31575
8.584924,11314
8.585925,9778
8.586924,9730
8.587922,6417
8.588923,5153
8.589925,13571
8.590924,13059
8.591926,7105
8.592924,5473
8.593924,13491
8.594925,11986
8.595925,5969
8.596924,6657
8.597922,17748
8.598925,7889
8.599927,7185
8.600922,12210
8.601923,7697
8.602926,10178
8.603924,7057
8.604925,5345
8.605924,12707
8.606945,8354
8.607930,6913
8.608924,15907
8.609924,9698
8.610925,15875
8.611924,7761
8.612923,5729
8.613922,6017
8.614926,6513
8.615925,6145
8.616925,5217
8.617923,21477
8.618922,15075
8.619925,22373
8.620926,11762
8.621924,10162
8.622926,7601
8.623926,32039
8.624925,6177
8.625925,11954
8.626924,11730
8.627924,8578
8.628925,23701
8.629924,21909
8.630923,21013
8.631925,6497
8.632922,8226
8.633924,5585
8.634924,14467
8.635922,6289
8.636924,17348
8.637924,5121
8.638923,9426
8.639924,10578
8.640925,12323
8.641924,9394
8.642924,21045
8.643925,33752
8.644923,9554
8.645925,21813
8.646923,24774
8.647924,6241
8.648925,29239
8.649925,6065
8.650924,10290
8.651926,7249
8.652924,8530
8.653924,10322
8.654923,5569
8.655924,5217
8.656925,9618
8.657925,11698
8.658922,25702
8.659923,6161
8.660925,16067
8.661924,20164
8.662924,15539
8.663923,37049
8.664927,36696
8.665926,7313
8.666924,10322
8.667925,6145
8.668925,34632
8.669924,11186
8.670942,15459
8.671932,12435
8.672928,10802
8.673929,10914
8.674924,11826
8.675923,12082
8.676924,10050
8.677924,7745
8.678925,11346
8.679923,5137
8.680924,6689
8.681924,28711
8.682924,22693
8.683924,9106
8.684925,7457
8.685924,8338
8.686923,8177
8.687926,7313
8.688925,10962
8.689924,11090
8.690924,6401
8.691922,10866
8.692926,51932
8.693924,10498
8.694923,26854
8.695925,25942
8.696924,5905
8.697922,12867
8.698924,8242
8.699924,5249
8.700925,16323
8.701924,12643
8.851123,17876
8.852136,9506
8.852926,21029
8.853684,27350
8.854433,9186
8.855254,8786
8.856006,16900
8.856759,10050
8.857508,7713
8.858273,14387
8.859022,6273
8.859770,16900
8.860522,15827
8.861278,9794
8.862033,22725
8.862897,14611
8.863676,12307
8.864466,8033
8.865227,26374
8.865989,12947
8.866743,7569
8.867502,13011
8.868255,6705
8.869013,10450
8.869764,6145
8.870527,29895
8.871290,15107
8.872053,7441
8.872809,16067
8.873573,31671
8.874339,29879
8.875106,27366
8.875923,23061
8.876925,15187
8.877923,26134
8.878926,28598
8.879925,6977
8.880925,9922
8.881926,16612
8.882922,6497
8.883924,6433
8.884926,5329
8.885925,18852
8.886923,18996
8.887924,6049
8.888924,37689
8.889922,12307
8.890924,5409
8.891923,5953
8.892922,14467
8.893924,24133
8.894926,8674
8.895922,9602
8.896924,5217
8.897924,6433
8.898924,5153
8.899924,12242
8.900925,5457
8.901923,5649
8.902926,19492
8.903924,19364
8.904925,11298
8.905925,30823
8.906922,9874
8.907925,17844
8.918163,9378
8.918396,9794
8.918609,15363
8.918821,14147
8.919033,9890
8.919246,5729
8.919462,8017
8.919678,11762
8.919897,13939
8.920116,13683
8.920924,9762
8.921923,17156
8.922926,17588
8.923925,7377
8.924925,11522
8.925922,5297
8.926946,15971
8.927931,23493
8.928926,36008
8.929924,11730
8.930923,26438
8.931925,31479
8.932923,23893
8.933926,21189
8.934925,13091
8.935924,13283
8.936923,14131
8.937924,23189
8.938923,7313
8.939926,7569
8.940923,17428
8.941923,5681
8.942923,5553
8.943924,26454
8.944924,15779
8.945924,10194
8.946926,5521
8.947923,13459
8.948924,5297
8.949925,21685
8.950923,8786
8.951926,10258
8.952924,15667
8.953925,6273
8.954922,14883
8.955925,32647
8.956926,35544
8.957924,21045
8.958925,18580
8.959923,26182
8.960923,17972
8.961922,23557
8.962923,7809
8.963926,10050
8.964924,18148
8.965924,44090
8.966924,29703
8.967926,11698
8.968922,17860
8.969925,9666
8.970926,9234
8.971924,24870
8.972924,14147
8.973924,13891
8.974924,8466
8.975925,16516
8.976924,39145
8.977924,41514
8.978924,5537
8.979924,17684
8.980926,16003
8.981925,13347
8.982924,8081
8.983925,5649
8.984925,15843
8.985922,17188
8.986925,21813
8.987924,37401
8.988924,35624
8.989964,6865
8.990931,7249
8.991925,14755
8.992926,29895
8.993926,7745
8.994924,12643
8.995926,9794
8.996924,31255
8.997924,14723
8.998923,22149
8.999925,12242
9.000925,49019
9.001924,54861
9.002926,29927
9.003924,8017
9.004924,8674
9.005924,10066
9.006924,12435
9.007923,9298
9.008923,8882
9.009924,12707
9.010922,6705
9.011925,11570
9.012925,5617
9.013922,10978
9.014923,27526
9.015924,19044
9.016922,28743
9.017925,27558
9.018924,6577
9.019923,19172
9.020922,11026
9.021924,30775
9.022924,6593
9.023926,6945
9.024925,15651
9.025924,5361
9.026925,11314
9.027923,28727
9.028924,9522
9.029924,5265
9.030925,5425
9.031925,14483
9.032926,33896
9.033924,16388
9.034924,5473
9.035925,7105
9.036923,8129
9.037925,16724
9.038924,13907
9.039924,59646
9.040925,24565
9.041925,11106
9.042925,30471
9.043922,7985
9.044924,55197
9.157189,6033
9.157773,14259
9.158155,16548
9.158506,13347
9.158847,6081
9.159257,12963
9.159594,13235
9.159938,16083
9.160279,15843
9.160637,7665
9.160983,18740
9.161326,20565
9.161924,38681
9.162925,52748
9.163922,29783
9.164922,5537
9.165922,6273
9.166924,12851
9.167924,28855
9.168924,19028
9.169925,5649
9.170924,9954
9.171924,14931
9.172924,37065
9.173924,24005
9.174925,8177
9.175925,18180
9.176924,8546
9.177924,39129
9.178926,16516
9.179924,45243
9.180924,42554
9.181924,13923
9.182946,20853
9.183932,57341
9.184925,25558
9.185925,31063
9.186926,13747
9.187924,9122
9.188924,5889
9.189924,7857
9.190923,13203
9.191924,54301
9.192924,16211
9.193925,6177
9.194924,9746
9.195922,5777
9.196924,17364
9.197923,28502
9.198924,19396
9.199924,5793
9.200925,24549
9.201927,52140
9.202925,6529
9.203925,22101
9.204925,15907
9.205926,53693
9.206924,15667
9.207923,19684
9.208924,9906
9.209924,13667
9.210926,32023
9.211923,30695
9.212924,6273
9.213922,41098
9.214926,6113
9.215924,6561
9.216923,24565
9.217924,9298
9.218925,27142
9.219924,64303
9.220924,54941
9.221923,8802
9.222922,40233
9.223922,21669
9.224925,30231
9.225927,27430
9.226926,13715
9.227924,17108
9.228925,32407
9.229924,57486
9.230924,28310
9.231925,10978
9.232924,29671
9.233923,11202
9.234924,5297
9.235925,36072
9.236924,6081
9.237924,5777
9.238924,24582
9.239924,12339
9.240924,10514
9.241922,10402
9.242926,5729
9.243924,27302
9.244926,10002
9.245924,14675
9.246943,6433
9.247927,27910
9.248924,26150
9.249924,22613
9.250924,11586
9.251925,10370
9.252925,8434
9.253925,16980
9.254924,7521
9.255924,13187
9.256926,21013
9.257922,22581
9.258923,29655
9.259924,31303
9.260925,34904
9.261923,23733
9.262924,6049
9.263924,17668
9.264923,65535
9.265924,27926
9.266924,14067
9.267922,8290
9.268924,21941
9.269923,13219
9.270924,10770
9.271924,41722
9.272922,11730
9.273923,13235
9.274924,11282
9.275925,14931
9.276925,27734
9.277926,27206
9.278925,6161
9.279924,17092
9.280924,9410
9.281924,11490
9.282922,16099
9.283924,9250
9.284923,8578
9.285924,6097
9.286925,13523
9.287923,14099
9.288924,6577
9.289923,17060
9.290926,20052
9.291922,5249
9.292925,10722
9.293924,7041
9.294924,45579
9.295925,17124
9.296923,9410
9.297923,6241
9.298924,8930
9.299926,17540
9.300924,11986
9.301926,10274
9.302923,13795
9.303924,6945
9.304922,6097
9.305924,23205
9.306923,13907
9.307923,10450
9.308924,10834
9.309924,28630
9.310940,11362
9.311927,4881
9.312926,21957
9.313925,5953
9.314926,40297
9.315923,38937
9.316925,7393
9.317923,24678
9.318924,19940
9.319925,5809
9.320925,41434
9.321927,22325
9.322921,9362
9.323925,5601
9.324925,10690
9.325924,16564
9.326925,7569
9.327924,20148
9.328927,52956
9.329924,47995
9.330924,65535
9.331925,11666
9.332923,61086
9.333924,6177
9.334924,28983
9.335926,17972
9.336922,10066
9.337924,21461
9.338925,30311
9.339924,5825
9.340923,11810
9.341924,7585
9.342922,20869
9.343923,24598
9.344924,24565
9.345924,13651
9.346925,20997
9.347924,9378
9.348925,30391
9.506139,15971
9.506899,11362
9.507443,40857
9.507956,25638
9.508450,9666
9.509011,11138
9.509507,8161
9.510002,10274
9.510492,19796
9.511013,15923
9.511508,9234
9.512007,7009
9.512501,14243
9.513004,21125
9.513497,19524
9.513999,14979
9.514924,14435
9.515923,9874
9.516925,10546
9.517925,17988
9.518925,32872
9.519922,9250
9.520925,7745
9.521926,42090
9.522924,8242
9.523926,15955
9.524923,5841
9.525924,13619
9.526924,13539
9.527924,8370
9.528923,40121
9.529924,7585
9.530925,6001
9.531924,5633
9.532924,5905
9.533926,8081
9.534924,20164
9.535924,10066
9.536926,11906
9.537924,6801
9.538924,13427
9.539924,31559
9.540924,8898
9.541927,42458
9.542923,26374
9.543925,43962
9.544925,65535
9.545924,65535
9.546925,6049
9.547924,9378
9.548923,18228
9.549924,23605
9.550924,18756
9.551924,5937
9.552924,7777
9.553923,15011
9.554925,21125
9.555925,14675
9.556924,32952
9.557924,16532
9.558922,11842
9.559924,32359
9.560924,15043
9.561926,5729
9.562923,9122
9.563923,34968
9.564924,39945
9.565926,7889
9.566944,7041
9.567930,22421
9.568924,6321
9.569927,10530
9.570925,18404
9.571924,6337
9.572924,8706
9.573924,8194
9.574923,9506
9.575922,5937
9.576926,9266
9.577922,8049
9.578924,14691
9.579924,27110
9.580926,6417
9.581924,11986
9.582923,22469
9.583924,27062
9.584925,21861
9.585923,36840
9.586924,6737
9.587923,8017
9.588924,15203
9.589924,40921
9.590925,42186
9.591924,32808
9.592925,32776
9.593924,14483
9.594924,19012
9.595924,32695
9.596922,18356
9.597925,22293
9.598923,6529
9.599925,17764
9.600924,9506
9.601923,6961
9.602923,6353
9.603923,12931
9.604924,16147
9.605924,26710
9.606924,29223
9.607925,7217
9.608923,10194
9.609924,6689
9.610925,36969
9.611925,10786
9.612925,36760
9.613924,31943
9.614923,36552
9.615925,6049
9.616925,32471
9.617925,7313
9.618924,22949
9.619925,22341
9.620922,31191
9.621924,10178
9.622925,18580
9.623923,25494
9.624924,9330
9.625924,39705
9.626925,43226
9.627924,16131
9.628927,12339
9.629923,6401
9.630942,12339
9.631931,10386
9.632924,17124
9.633923,18388
9.634924,8994
9.635923,27974
9.636925,20308
9.637924,29079
9.638926,15827
9.639924,45851
9.640923,38105
9.641924,8498
9.642923,21893
9.643925,33864
9.644924,11106
9.645924,15987
9.646924,17380
9.647921,32711
9.648924,11938
9.649924,6033
9.650924,10946
9.651924,7953
9.652924,14627
9.653925,36953
9.654925,23957
9.655924,8594
9.656924,17572
9.657925,26326
9.658924,14179
9.659926,52028
9.660924,40953
9.661923,20645
9.662924,20276
9.663923,9010
9.664925,17188
9.665924,13155
9.666925,28422
9.667924,6881
9.668924,24165
9.669923,44730
9.670926,8978
9.671922,6465
9.672926,6161
9.673925,23525
9.674923,6161
9.675925,5761
9.676926,6049
9.677923,24726
9.678926,12547
9.679925,6257
9.680926,9250
9.681924,10498
9.682925,12979
9.683926,14275
9.684925,10434
9.685924,8177
9.686924,9842
9.687923,14051
9.688926,7489
9.689924,15043
9.690925,48923
9.691923,9682
9.692924,38169
9.693924,49051
9.694938,9378
9.695925,11522
9.696925,15699
9.697926,6113
9.853692,9778
9.854602,6321
9.855273,12755
9.855923,21653
9.856566,10290
9.857279,6929
9.857929,11410
9.858575,12579
9.859223,16836
9.859899,10370
9.860545,12291
9.861196,24726
9.861844,29847
9.862499,6961
9.863156,8754
9.863806,15907
9.864458,11122
9.865135,16564
9.865783,39977
9.866442,18436
9.867094,7969
9.867746,18388
9.868403,17364
9.869065,27478
9.869923,52956
9.870925,34216
9.871922,7633
9.872923,26774
9.873922,15571
9.874924,8081
9.875924,23733
9.876925,25958
9.877923,6177
9.878923,28614
9.879924,6401
9.880925,10274
9.881924,6241
9.882925,6785
9.883924,12082
9.884926,9474
9.885923,29143
9.886946,23125
9.887929,16468
9.888923,15123
9.889924,11954
9.890926,20228
9.891924,6913
9.892922,6929
9.893924,11314
9.894924,5841
9.895922,10274
9.896922,11666
9.897925,31383
9.898925,7169
9.899922,6033
9.900924,7457
9.901925,23557
9.902925,19988
9.903923,8818
9.904925,32599
9.905924,15891
9.906923,8402
9.907924,15235
9.908925,14227
9.909925,13459
9.910924,16051
9.911924,6897
9.912926,7441
9.913924,27446
9.914925,18660
9.915924,9026
9.916922,6321
9.917924,8578
9.918923,28438
9.919924,13731
9.920922,42826
9.921924,36200
9.922924,27270
9.923924,65535
9.924924,32151
9.925924,7297
9.926925,22245
9.927925,32231
9.928925,15955
9.929923,8482
9.930926,20436
9.931924,13187
9.932923,18964
9.933923,12066
9.934924,18708
9.935924,8402
9.936924,36200
9.937922,23573
9.938922,8354
9.939926,18244
9.940924,40889
9.941922,40281
9.942923,16516
9.943924,7937
9.944924,12258
9.945924,6785
9.946924,8177
9.947925,20565
9.948924,11746
9.949922,13155
9.950940,6401
9.951930,10370
9.952924,11426
9.953925,8930
9.954923,6609
9.955922,13619
9.956925,8033
9.957923,8177
9.958924,8290
9.959925,10178
9.960924,6737
9.961925,14483
9.962924,18276
9.963924,22373
9.964924,12066
9.965926,8113
9.966922,24293
9.967924,6241
9.968926,5777
9.969924,6433
9.970925,9154
9.971924,6433
9.972924,11746
9.973924,32263
9.974923,12307
9.975925,12467
9.976924,6049
9.977921,8338
9.978924,7873
9.979924,36744
9.980923,6209
9.981925,13747
9.982924,8578
9.983924,18308
9.984924,38425
9.985923,36328
9.986925,14227
9.987923,8177
9.988923,39881
9.989926,50284
9.990926,50444
9.991924,8898
9.992924,22357
9.993924,12707
9.994926,16596
9.995925,16291
9.996924,8450
9.997924,15523
9.998927,24117
9.999923,17924
10.000923,25430
10.002673,36632
10.003561,11362
10.004333,17236
10.005072,14067
10.005926,22997
10.006926,36921
10.007924,13875
10.008925,6049
10.009924,9010
10.010925,11842
10.011925,9746
10.012925,8081
10.013923,15795
10.014941,11090
10.015925,12595
10.016924,16788
10.017924,10706
10.018924,8930
10.019924,6961
10.020924,10562
10.021923,16964
10.022923,54445
10.023923,45675
10.024923,8370
10.025926,11554
10.026925,51884
10.027923,9506
10.028924,14339
10.029924,5953
10.030921,10162
10.031924,16596
10.032923,24133
10.033923,21573
10.034924,40457
10.035924,11538
10.036926,19076
10.037923,13331
10.038925,9282
10.039924,59054
10.040924,17092
10.041924,6609
10.042925,9090
10.043925,16692
10.044924,7297
10.161976,19828
10.163040,8930
10.163902,10050
10.164723,21621
10.165534,15395
10.166419,29495
10.167231,36744
10.168050,10466
10.168861,16740
10.169694,33752
10.170507,50700
10.171319,20100
10.178654,10594
10.178892,12819
10.179117,12435
10.179327,10930
10.179539,7569
10.179769,5025
10.179987,8113
10.180199,13539
10.180416,12082
10.180632,16660
10.180924,21045
10.181925,36680
10.182923,22213
10.183923,8402
10.184925,6337
10.185922,6961
10.186925,6177
10.187923,15523
10.188925,45291
10.189924,8177
10.190922,10978
10.191922,9442
10.192923,29431
10.193925,26998
10.194923,37609
10.195926,27990
10.196923,27478
10.197923,46363
10.198924,37353
10.199924,18388
10.200926,9890
10.201924,8802
10.202922,7569
10.203924,9138
10.204922,12307
10.205925,8274
10.206947,10290
10.207933,11906
10.208927,9506
10.209923,7329
10.210924,38489
10.211924,35800
10.212923,9746
10.213923,8161
10.214924,17380
10.215923,17220
10.216924,18532
10.217925,17044
10.218924,7169
10.219924,25014
10.220925,16323
10.221923,8962
10.222924,20789
10.223922,10978
10.224925,17092
10.225923,10642
10.226926,11282
10.227924,13587
10.228924,35512
10.229924,20629
10.230925,13699
10.231924,6657
10.232926,6145
10.233925,17812
10.234925,31975
10.235924,10514
10.236926,16003
10.237925,7729
10.238923,36873
10.239924,25318
10.240925,9874
10.241925,8882
10.242924,6449
10.243924,26054
10.244926,23813
10.245925,6369
10.246924,9874
10.247926,21525
10.248923,62959
10.249923,10626
10.250924,50732
10.251924,65535
10.252926,50748
10.253924,6673
10.254925,6209
10.255923,11394
10.256924,17380
10.257923,8610
10.258923,32439
10.259927,10402
10.260924,30599
10.261924,32007
10.262924,7473
10.263924,6369
10.264924,14707
10.265927,10066
10.266922,52796
10.267924,47019
10.268922,27238
10.269924,11650
10.270940,18052
10.271932,15267
10.272924,34632
10.273924,8210
10.274924,11586
10.275922,24341
10.276924,8962
10.277924,8097
10.278923,8274
10.279924,9618
10.280925,8882
10.281924,7217
10.282922,8562
10.283926,12034
10.284925,29463
10.285926,14899
10.286924,36072
10.287922,11698
10.288924,6673
10.289923,40953
10.290927,65535
10.291924,58558
10.292924,21205
10.293924,19396
10.294924,9234
10.295924,6481
10.296922,18340
10.297924,36905
10.298923,56349
10.299925,16644
10.300925,7777
10.301923,43722
10.302924,65535
10.303926,20020
10.304924,22165
10.305926,6465
10.306924,6609
10.307923,6897
10.308926,8177
10.309922,10258
10.310923,9186
10.311924,7233
10.312924,7009
10.313925,34344
10.314923,28102
10.315925,37353
10.316924,13331
10.317924,26182
10.318924,26726
10.319922,38441
10.320922,8594
10.321924,33896
10.322923,12499
10.323923,41818
10.324924,22357
10.325922,7617
10.326924,10658
10.327925,8338
10.328925,13619
10.329924,9810
10.330924,7329
10.331924,8177
10.332923,7121
10.333924,11650
10.334941,9426
10.335930,5953
10.336924,7937
10.337926,12419
10.338923,7809
10.339923,6193
10.340925,19268
10.341924,6689
10.342924,10946
10.343923,9138
10.344924,6465
10.345927,8802
10.346922,11090
10.347924,6961
10.348924,10882
10.349922,6753
10.350924,16740
10.351923,12323
10.352927,8418
10.353925,10626
10.354923,7345
10.355925,14883
10.356924,8546
10.357925,7297
10.522464,7041
10.523112,5345
10.523526,6177
10.523919,5409
10.524303,5825
10.524750,6177
10.525134,5553
10.525506,7345
10.525884,11426
10.526284,12387
10.526826,10370
10.527220,5681
10.527599,6449
10.527985,5377
10.528925,7137
10.529925,5841
10.530924,6177
10.531923,8658
10.532925,6993
10.533923,6977
10.534926,8274
10.535925,8594
10.536923,9074
10.537925,6785
10.538925,6017
10.539924,6625
10.540923,6145
10.541924,9410
10.542922,6497
10.543923,6977
10.544925,7089
10.545924,9826
10.546925,6433
10.547922,6017
10.548923,8210
10.549922,8258
10.550925,6033
10.551924,6193
10.552924,7089
10.553922,8626
10.554925,7873
10.555924,6721
10.556925,7985
10.557924,6449
10.558925,6465
10.559924,6945
10.560924,10274
10.561924,10258
10.562924,6337
10.563926,5137
10.564926,5937
10.565924,8290
10.566922,8226
10.567924,6225
10.568924,6545
10.569926,6353
10.570925,8113
10.571924,6017
10.572922,8290
10.573923,8097
10.574925,6865
10.575924,8290
10.576925,11394
10.577924,6593
10.578924,8129
10.579924,4833
10.580925,5937
10.581925,5969
10.582924,7777
10.583923,10338
10.584924,7297
10.585924,7841
10.586924,7121
10.587925,7073
10.588923,6417
10.589924,6273
10.590950,9218
10.591933,7889
10.592922,8001
10.593924,6161
10.594924,6081
10.595926,5313
10.596923,7265
10.597925,8065
10.598926,7953
10.599927,7585
10.600922,6529
10.601925,7073
10.602924,7745
10.603924,6721
10.604924,8978
10.605924,11778
10.606924,7953
10.607924,6769
10.608924,6833
10.609922,8097
10.610922,8626
10.611924,7681
10.612922,6033
10.613923,5857
10.614924,6593
10.615923,9554
10.616925,6113
10.617925,7601
10.618922,10018
10.619922,8706
10.620924,7361
10.621927,6705
10.622924,7505
10.623924,7313
10.624925,5889
10.625924,8081
10.626923,6497
10.627924,6417
10.628926,6241
10.629922,8754
10.630924,9170
10.631924,7329
10.632924,7841
10.633925,7361
10.634924,6193
10.635922,6785
10.636923,8177
10.637924,6113
10.638923,6081
10.639924,10162
10.640922,6977
10.641923,6465
10.642924,7905
10.643925,8578
10.644926,8049
10.645924,8290
10.646924,6017
10.647926,6081
10.648924,6033
10.649924,6753
10.650923,9490
10.651925,10418
10.652925,7105
10.653926,6609
10.654939,10754
10.655935,5169
10.656927,6449
10.657925,9922
10.658924,9666
10.659923,6993
10.660924,6865
10.661925,6817
10.662923,5889
10.663925,7409
10.664924,9394
10.665925,6721
10.666924,6865
10.667925,6881
10.668924,10786
10.669923,8610
10.670922,5777
10.671924,10802
10.672925,8850
10.673924,6753
10.674923,6929
10.675925,8145
10.676923,7377
10.677925,6337
10.678924,6689
10.679922,7425
10.680924,6289
10.681924,8658
10.682925,9474
10.683925,5665
10.684924,6593
10.685924,6929
10.686925,8177
10.687925,8177
10.688924,7169
10.689926,6561
10.690925,7329
10.691924,5473
10.692924,7793
10.693924,7969
10.694923,6113
10.695923,7857
10.696923,9666
10.697923,8177
10.698923,6785
10.699924,9874
10.700925,8081
10.701924,6353
10.702924,5793
10.703924,6049
10.704923,7281
10.705924,8626
10.706926,6481
10.707924,5633
10.708922,7745
10.709925,6785
10.710923,6865
10.711926,6065
10.712924,6177
10.713922,7217
10.871100,5793
10.871881,6449
10.872451,8706
10.872990,9618
10.873520,9250
10.874117,7505
10.874644,5089
10.875181,5905
10.875716,5649
10.876269,6577
10.876802,8081
10.877340,8338
10.877869,6865
10.878407,7409
10.878941,7505
10.879476,8177
10.880014,6225
10.880571,6353
10.881112,6321
10.881924,6017
10.882924,6097
10.883922,7217
10.884924,6273
10.885926,6225
10.886925,7345
10.887925,8049
10.888924,6273
10.889925,8001
10.890924,6609
10.891925,9170
10.892924,5857
10.893923,5697
10.894923,5857
10.895926,6497
10.896924,10898
10.897926,8482
10.898925,8386
10.899925,5585
10.900924,6401
10.901923,6369
10.902924,6673
10.903923,6273
10.904925,6097
10.905927,6321
10.906924,8498
10.907924,6641
10.908925,6177
10.909924,7089
10.910945,6161
10.911929,7009
10.912925,6305
10.913924,5537
10.914924,6017
10.915923,6689
10.916923,8017
10.917924,8674
10.918925,10066
10.919924,7489
10.920926,8177
10.921925,6209
10.922925,5969
10.923927,8962
10.924926,10290
10.925926,6305
10.926922,5281
10.927924,6353
10.928924,6993
10.929925,6481
10.930924,5393
10.931923,6561
10.932924,7553
10.933925,8418
10.934925,6673
10.935924,6497
10.936925,7009
10.937926,5857
10.938924,7169
10.939924,7825
10.940925,7217
10.941923,7601
10.942925,6289
10.943924,5825
10.944925,6417
10.945924,7233
10.946924,6929
10.947923,6081
10.948926,6033
10.949925,6561
10.950924,5217
10.951926,7297
10.952923,5249
10.953925,6721
10.954924,5505
10.955925,8177
10.956926,11618
10.957924,11650
10.958923,10722
10.959924,8962
10.960924,5745
10.961924,5777
10.962923,5937
10.963924,5665
10.964924,10306
10.965923,5377
10.966923,4817
10.967924,5937
10.968925,8017
10.969925,5729
10.970924,5473
10.971925,5985
10.972924,8786
10.973924,8786
10.974940,7761
10.975927,10722
10.976929,10370
10.977925,8177
10.978926,7953
10.979926,5553
10.980925,6849
10.981922,4977
10.982922,4929
10.983924,5281
10.984923,5905
10.985924,6241
10.986924,4577
10.987926,7009
10.988925,8994
10.989925,6337
10.990924,7297
10.991923,5793
10.992924,6017
10.993923,5041
10.994923,4897
10.995924,5377
10.996924,5089
10.997926,5953
10.998925,7521
10.999924,6865
11.000924,4945
11.001926,5969
11.002926,6049
11.003926,5665
11.004924,6417
11.005924,6545
11.006923,5057
11.007925,6081
11.008923,5009
11.009924,8354
11.010924,4641
11.011922,5393
11.012924,6097
11.013925,6801
11.014923,5121
11.015926,6993
11.016926,6593
11.017923,7841
11.018925,8402
11.019925,5601
11.020924,4945
11.021922,4801
11.022924,5073
11.023926,6097
11.024924,10274
11.025924,7009
11.026924,6481
11.027925,7233
11.028921,5329
11.029925,5393
11.030926,6513
11.031924,5953
11.032924,4897
11.033923,6065
11.034925,6033
11.035925,5553
11.036923,7617
11.037923,8578
11.038947,6737
11.039931,5969
11.040926,5809
11.041923,6097
11.042923,4689
11.043926,5073
11.044924,5073
11.045925,8290
11.046924,6705
11.047924,4801
11.048923,5169
11.049925,7553
11.050923,8210
11.051924,4929
11.052923,4497
11.053923,4689
11.054925,7425
11.055925,9490
11.056922,8994
11.057925,8242
11.058927,7777
11.059924,7057
11.060924,4929
11.061925,5841
11.220098,9058
11.221043,7505
11.221768,7521
11.222468,7153
11.223155,6817
11.223908,6257
11.224597,5729
11.225283,6193
11.225971,6337
11.226677,8594
11.227362,8129
11.228050,5153
11.228735,5921
11.229426,6305
11.230121,5217
11.230932,5953
11.231630,5921
11.232350,4465
11.233043,5393
11.233731,6337
11.234424,4993
11.235116,6305
11.235807,7201
11.236504,6977
11.237207,6929
11.237924,6289
11.238924,7073
11.239924,5937
11.240922,5473
11.241924,6161
11.242926,5617
11.243922,7265
11.244923,7041
11.245923,6481
11.246923,5409
11.247926,4785
11.248923,8210
11.249924,6241
11.250924,5681
11.251924,5409
11.252924,5553
11.253924,5169
11.254926,6449
11.255922,6065
11.256925,5217
11.257924,7041
11.258922,7825
11.259924,6065
11.260926,5153
11.261924,7761
11.262924,10642
11.263924,7153
11.264924,12082
11.265923,6369
11.266925,5809
11.267923,7217
11.268926,5825
11.269923,5073
11.270922,8722
11.271924,4929
11.272925,7681
11.273925,5921
11.274923,5761
11.275924,5985
11.276925,5025
11.277924,5281
11.278926,8450
11.279923,8177
11.280923,5201
11.281923,7937
11.282923,9010
11.283925,5249
11.284923,5201
11.285924,6801
11.286924,5489
11.287924,4849
11.288923,6049
11.289924,5313
11.290922,7041
11.291925,9170
11.292925,8546
11.293925,5969
11.294937,5729
11.295930,6657
11.296927,4753
11.297927,6625
11.298925,6865
11.299925,6433
11.300924,6113
11.301924,5713
11.302924,6417
11.303924,5329
11.304923,5601
11.305924,4705
11.306924,5377
11.307924,5793
11.308925,7489
11.309927,5681
11.310925,7185
11.311926,6881
11.312923,5281
11.313926,4929
11.314924,7249
11.315924,7217
11.316925,4913
11.317924,5201
11.318924,4801
11.319924,6497
11.320924,6801
11.321924,6545
11.322923,7649
11.323924,5297
11.324925,4929
11.325924,5649
11.326924,5377
11.327924,4961
11.328924,6481
11.329925,5649
11.330924,7521
11.331922,7137
11.332926,6081
11.333924,6401
11.334923,5521
11.335924,5089
11.336924,6113
11.337924,5505
11.338924,5409
11.339926,6689
11.340924,8514
11.341924,9554
11.342926,7073
11.343923,5025
11.344926,4817
11.345925,4897
11.346925,4897
11.347922,5105
11.348924,6865
11.349923,6577
11.350924,8001
11.351924,5633
11.352924,5153
11.353922,5105
11.354924,9266
11.355924,5985
11.356924,6081
11.357924,7505
11.358938,7313
11.359931,6321
11.360925,7153
11.361924,5281
11.362924,6977
11.363922,5137
11.364924,5153
11.365925,4657
11.366924,6785
11.367922,8129
11.368924,5649
11.369924,6577
11.370925,5809
11.371922,6817
11.372924,4897
11.373924,4673
11.374925,6017
11.375924,7937
11.376924,6849
11.377925,6257
11.378924,5761
11.379925,5393
11.380924,8113
11.381924,7809
11.382922,5009
11.383924,5073
11.384924,5473
11.385924,5473
11.386924,4817
11.387921,6801
11.388924,5121
11.389923,8466
11.390922,5265
11.391924,5377
11.392924,7089
11.393924,7649
11.394927,8802
11.395924,12082
11.396924,15299
11.397923,5089
11.398924,6161
11.399925,5329
11.400923,6209
11.401924,7073
11.402927,6401
11.403923,5809
11.404924,5585
11.405924,5985
11.406925,5633
11.407924,6401
11.408925,4993
11.409924,5729
11.410924,5697
11.411923,7265
11.534968,8177
11.535454,7745
11.535728,6385
11.535996,6065
11.536245,6017
11.536515,6033
11.536754,5345
11.537005,5633
11.537253,5969
11.537513,6561
11.537757,7409
11.538003,6785
11.538926,7521
11.539925,5905
11.540925,5537
11.541925,5281
11.542925,5217
11.543924,7121
11.544923,5041
11.545924,6785
11.546922,7985
11.547924,5505
11.548924,7745
11.549925,7313
11.550943,5825
11.551931,6065
11.552925,5761
11.553924,5633
11.554923,5361
11.555924,5729
11.556922,10034
11.557924,9618
11.558923,5185
11.559923,5009
11.560924,5649
11.561925,5313
11.562926,5249
11.563925,7265
11.564925,6209
11.565923,5217
11.566922,5633
11.567925,7217
11.568924,9826
11.569925,6817
11.570925,5665
11.571923,6065
11.572925,6545
11.573924,5553
11.574924,4737
11.575923,4785
11.576922,8177
11.577922,6721
11.578923,7361
11.579925,5857
11.580925,5057
11.581924,5153
11.582925,6177
11.583924,4945
11.584926,5745
11.585925,9026
11.586925,7553
11.587923,7249
11.588924,4801
11.589926,5121
11.590924,5233
11.591922,5857
11.592923,7249
11.593924,5009
11.594922,5169
11.595926,5329
11.596924,5745
11.597924,6593
11.598927,6017
11.599924,5601
11.600922,5729
11.601922,5889
11.602925,5809
11.603924,5937
11.604923,7745
11.605924,7137
11.606926,4977
11.607926,5217
11.608924,5425
11.609924,8738
11.610924,6241
11.611924,5217
11.612924,5345
11.613924,6881
11.614949,6705
11.615934,6977
11.616925,6785
11.617926,6321
11.618923,5825
11.619923,7457
11.620925,6913
11.621924,5377
11.622924,5313
11.623922,5009
11.624926,5585
11.625924,7521
11.626924,6801
11.627923,5441
11.628923,5361
11.629924,7921
11.630922,7217
11.631926,6881
11.632924,5105
11.633924,6641
11.634922,6097
11.635924,6049
11.636924,6193
11.637926,5649
11.638924,6097
11.639924,5649
11.640926,5873
11.641924,6449
11.642922,6289
11.643925,6161
11.644924,5825
11.645925,5505
11.646924,5729
11.647924,5777
11.648926,5665
11.649923,6545
11.650924,5841
11.651925,5921
11.652924,6401
11.653921,6337
11.654925,5905
11.655923,5521
11.656924,5457
11.657926,5985
11.658924,5969
11.659925,5777
11.660926,5345
11.661924,5825
11.662924,6593
11.663925,5761
11.664925,6177
11.665924,5761
11.666924,4881
11.667925,5809
11.668924,6705
11.669923,6529
11.670923,6657
11.671923,6657
11.672925,5889
11.673925,6321
11.674923,6337
11.675921,6161
11.676924,5729
11.677923,5201
11.678939,6721
11.679930,5393
11.680924,5169
11.681923,5857
11.682924,6241
11.683923,5921
11.684924,6657
11.685922,5857
11.686924,6193
11.687924,6817
11.688925,6945
11.689924,4961
11.690923,6465
11.691924,5425
11.692924,5169
11.693926,5297
11.694923,7841
11.695925,6657
11.696926,6993
11.697926,6401
11.698924,7809
11.699923,5921
11.700926,5233
11.701924,6529
11.702924,5713
11.703924,6977
11.704925,5681
11.705924,5537
11.706924,6929
11.707925,5185
11.708924,5153
11.709924,6369
11.710923,6625
11.711926,5473
11.712924,5889
11.713924,6225
11.714924,5473
11.715925,8065
11.716927,4801
11.717924,5377
11.718925,5313
11.719924,6561
11.720924,7249
11.721926,7249
11.722925,8177
11.723921,5841
11.724926,4913
11.725925,5425
11.889762,5585
11.890416,8177
11.890836,7553
11.891252,7137
11.891649,7185
11.892117,6865
11.892512,7377
11.892916,6529
11.893314,6289
11.893733,5345
11.894140,6145
11.894543,6321
11.894943,6337
11.895347,4705
11.895924,6209
11.896923,6785
11.897923,5777
11.898924,5681
11.899924,5649
11.900923,6273
11.901925,6065
11.902926,7217
11.903922,6753
11.904925,5649
11.905926,5729
11.906922,5793
11.907923,5457
11.908923,5137
11.909923,5585
11.910924,6417
11.911924,5841
11.912926,7057
11.913923,5953
11.914924,5377
11.915925,5665
11.916925,5409
11.917926,5569
11.918924,6321
11.919924,6209
11.920923,6113
11.921926,6545
11.922926,6705
11.923923,5761
11.924925,5137
11.925926,7553
11.926922,6785
11.927924,5937
11.928926,5585
11.929924,5089
11.930923,5841
11.931924,6193
11.932922,6609
11.933925,7121
11.934946,6465
11.935929,6529
11.936925,5793
11.937926,6033
11.938924,5841
11.939926,5473
11.940925,5697
11.941923,6065
11.942925,6561
11.943926,6625
11.944922,6305
11.945925,6049
11.946926,5505
11.947925,5505
11.948923,5393
11.949924,6481
11.950926,5777
11.951922,5809
11.952925,6193
11.953924,5281
11.954922,6225
11.955926,5985
11.956925,6321
11.957923,6529
11.958926,5825
11.959924,5713
11.960924,4833
11.961924,5489
11.962924,5825
11.963926,6817
11.964925,5985
11.965924,5505
11.966926,6977
11.967925,5169
11.968924,5329
11.969926,5297
11.970923,6305
11.971924,7217
11.972923,6065
11.973924,6033
11.974925,5233
11.975925,5777
11.976926,5841
11.977925,5489
11.978923,7953
11.979924,8962
11.980924,6737
11.981925,5425
11.982925,7457
11.983925,5073
11.984923,5329
11.985924,6593
11.986924,6865
11.987923,8161
11.988924,5457
11.989924,5553
11.990924,5985
11.991924,6337
11.992925,5217
11.993924,5697
11.994923,5265
11.995926,5665
11.996923,6161
11.997923,7361
11.998935,7361
11.999929,5697
12.000923,5553
12.001924,7009
12.002923,5249
12.003923,6321
12.004924,5425
12.005926,5409
12.006927,5313
12.007924,5057
12.008924,5329
12.009924,6737
12.010923,7681
12.011924,6657
12.012924,5761
12.013926,5713
12.014924,6801
12.015924,6449
12.016925,5057
12.017924,5473
12.018923,6097
12.019922,7265
12.020924,6065
12.021926,5921
12.022926,5729
12.023924,6833
12.024926,5985
12.025923,5089
12.026925,5169
12.027924,6177
12.028924,6993
12.029925,5809
12.030923,5249
12.031926,4753
12.032923,6081
12.033925,6049
12.034923,6753
12.035924,5601
12.036926,5793
12.037926,6993
12.038925,5921
12.039924,7041
12.040924,6529
12.041926,6065
12.042925,5697
12.043925,5441
12.044924,6289
12.045924,5569
12.046924,5345
12.047924,5937
12.048922,6433
12.049926,6145
12.050924,6321
12.051925,6625
12.052924,5217
12.053923,5201
12.054924,6689
12.055926,5889
12.056926,5521
12.057924,5441
12.058926,7729
12.059925,6993
12.060923,5345
12.061926,5313
12.062937,8017
12.063931,6529
12.064927,5889
12.065923,5905
12.066924,6673
12.067923,5681
12.068924,5249
12.069924,5073
12.070923,6049
12.071923,6721
12.072924,6657
12.073924,5889
12.074923,5809
12.075925,6145
12.076925,5201
12.077924,6225
12.078922,5409
12.079925,5617
12.080924,7137
12.286995,5601
12.287786,5601
12.288369,8498
12.288932,7345
12.289482,6497
12.290110,5457
12.290661,5729
12.291217,6417
12.291767,5137
12.292339,5345
12.292898,6401
12.293450,6753
12.294006,5553
12.294562,5713
12.295124,5729
12.295682,5665
12.296247,5921
12.296819,6017
12.297380,4801
12.297943,6801
12.298923,5649
12.299923,5809
12.300923,6609
12.301926,6465
12.302924,6673
12.303926,5585
12.304924,6209
12.305923,5729
12.306923,5553
12.307926,8450
12.308924,6577
12.309924,6241
12.310926,5409
12.311925,5937
12.312923,6241
12.313924,6017
12.314924,5649
12.315924,5569
12.316923,5969
12.318052,5953
12.318931,5601
12.319925,6289
12.320923,6465
12.321924,5713
12.322925,5585
12.323924,6497
12.324925,5873
12.325924,5777
12.326924,5585
12.327924,5537
12.328924,5841
12.329924,5809
12.330925,5713
12.331922,7041
12.332924,6273
12.333922,5857
12.334923,6065
12.335924,6913
12.336923,6929
12.337925,5681
12.338923,5313
12.339926,6753
12.340923,6193
12.341924,5985
12.342924,7057
12.343925,5649
12.344925,5585
12.345924,5473
12.346924,6881
12.347924,6033
12.348923,6241
12.349925,6833
12.350924,6305
12.351924,6193
12.352923,5553
12.353922,5377
12.354923,6465
12.355924,6529
12.356923,6305
12.357924,7697
12.358924,7489
12.359924,5713
12.360925,5745
12.361924,6113
12.362923,7697
12.363923,5793
12.364924,5425
12.365926,5761
12.366922,7905
12.367924,7953
12.368924,7345
12.369924,5809
12.370924,6209
12.371925,7553
12.372924,6913
12.373924,6241
12.374923,5857
12.375923,6337
12.376924,5649
12.377925,6113
12.378924,5985
12.379926,8418
12.380926,8017
12.381923,7361
12.382944,6209
12.383931,5265
12.384925,5697
12.385926,6609
12.386925,7361
12.387924,6257
12.388922,6097
12.389926,5393
12.390924,7009
12.391925,6337
12.392926,6737
12.393924,6993
12.394923,6769
12.395926,5649
12.396925,5777
12.397924,6065
12.398921,6177
12.399924,5889
12.400924,5825
12.401925,6593
12.402922,7073
12.403925,6769
12.404924,6945
12.405924,5905
12.406925,6161
12.407924,6033
12.408924,5569
12.409925,7489
12.410924,6497
12.411924,6689
12.412924,6433
12.413926,5729
12.414924,6577
12.415926,6561
12.416924,6017
12.417924,6321
12.418924,6273
12.419924,6673
12.420924,6337
12.421923,6225
12.422924,6321
12.423924,6545
12.424924,5921
12.425923,6241
12.426925,6529
12.427922,6881
12.428923,6529
12.429925,6529
12.430924,6001
12.431924,6209
12.432924,6417
12.433924,6225
12.434926,7489
12.435925,7889
12.436924,5921
12.437923,6017
12.438925,5761
12.439925,6353
12.440925,6529
12.441923,7761
12.442926,6241
12.443925,6209
12.444923,6545
12.445924,6577
12.446939,5729
12.447932,5713
12.448924,6433
12.449925,5969
12.450923,6753
12.451925,6673
12.452926,5937
12.453922,6465
12.454923,6609
12.455924,6241
12.456924,6545
12.457925,5633
12.458924,7585
12.459924,7473
12.460924,6849
12.461926,6241
12.462922,6529
12.463927,6177
12.464923,7073
12.465925,6145
12.466923,5953
12.467926,6865
12.468924,6961
12.469924,5985
12.470923,7825
12.471924,7585
12.472924,5825
12.473925,5729
12.474923,5777
12.475925,6449
12.476924,7201
12.477922,6849
12.629425,3040
12.630411,6225
12.631165,8418
12.631890,7633
12.632599,6945
12.633384,4929
12.634096,6113
12.634807,5809
12.635518,7425
12.636252,6833
12.636966,6081
12.637677,6113
12.638640,7009
12.639365,5537
12.640083,5009
12.640799,5985
12.641517,7121
12.642267,6449
12.642987,6401
12.643709,6033
12.644432,6401
12.645156,5697
12.645879,5665
12.646601,6065
12.647330,5969
12.648053,5841
12.648775,6785
12.649504,6817
12.650230,5905
12.650961,5281
12.651924,6561
12.652925,7265
12.653924,7345
12.654925,6561
12.655925,6225
12.656926,6145
12.657923,6881
12.658924,7217
12.659924,7553
12.660924,6577
12.661924,6289
12.662924,6065
12.663926,5841
12.664924,6225
12.665924,6033
12.666923,6289
12.667924,6177
12.668925,6081
12.669923,7009
12.670923,7169
12.671923,7473
12.672925,6993
12.673924,6561
12.674926,5953
12.675924,6305
12.676927,5889
12.677924,6017
12.678923,6481
12.679924,6881
12.680926,7057
12.681925,6865
12.682926,6449
12.683925,6321
12.684924,6817
12.685924,6961
12.686926,7009
12.687925,6305
12.688924,6049
12.689923,6193
12.690924,8210
12.691924,7121
12.692924,6561
12.693925,6049
12.694925,5953
12.695926,6081
12.696923,7169
12.697925,6129
12.698924,5729
12.699926,6449
12.700924,7313
12.701922,6225
12.702941,6097
12.703930,6673
12.704924,5537
12.705924,6081
12.706925,6017
12.707924,5905
12.708924,6785
12.709924,7233
12.710924,6625
12.711924,6337
12.712922,6785
12.713924,6753
12.714923,6225
12.715924,6161
12.716924,6657
12.717923,6577
12.718923,6161
12.719923,6369
12.720924,5969
12.721926,7345
12.722924,6161
12.723924,6721
12.724924,6337
12.725924,6561
12.726924,6673
12.727924,6513
12.728924,6529
12.729924,6145
12.730924,6593
12.731924,7569
12.732924,6225
12.733924,6193
12.734926,6033
12.735922,6145
12.736924,6545
12.737925,6849
12.738924,6817
12.739925,6737
12.740926,6193
12.741923,6209
12.742927,6353
12.743924,6369
12.744924,6113
12.745923,6033
12.746924,6337
12.747924,6305
12.748927,7041
12.749925,7841
12.750924,6577
12.751924,7217
12.752923,5777
12.753925,6209
12.754924,6641
12.755924,7889
12.756925,8145
12.757926,6673
12.758922,6689
12.759925,7425
12.760923,7937
12.761923,6705
12.762927,5841
12.763924,6097
12.764924,6321
12.765923,7393
12.766939,6417
12.767929,6049
12.768924,6161
12.769925,6497
12.770923,6641
12.771925,6321
12.772922,6577
12.773925,6881
12.774923,7057
12.775925,6641
12.776924,6593
12.787498,6897
12.787736,6593
12.787967,6529
12.788177,7841
12.788393,8177
12.788606,7313
12.788821,8161
12.789039,8258
12.789253,8722
12.789471,9474
12.789925,8530
12.790925,6241
12.791924,6081
12.792924,6225
12.793925,7585
12.794926,6545
12.795923,7089
12.796923,6017
12.797924,7457
12.798924,8001
12.799924,6529
12.800922,7617
12.801924,6705
12.802924,5937
12.803926,6417
12.804924,7777
12.805923,7937
12.806924,6081
12.807922,6017
12.808924,6433
12.809924,7361
12.810924,6865
12.811925,6993
12.812923,7297
12.813923,6753
12.814923,6353
12.815924,6337
12.816923,6529
12.817925,6577
12.818923,6865
12.819926,6849
12.820924,7233
12.821922,6881
12.822924,5985
12.935831,7617
12.936387,10002
12.936700,8322
12.937000,7585
12.937294,6545
12.937650,6529
12.937950,6097
12.938243,5041
12.938532,6385
12.938840,7009
12.939138,6801
12.939428,7297
12.939926,6737
12.940924,7297
12.941924,6977
12.942925,6577
12.943923,7505
12.944925,6961
12.945925,6321
12.946923,6929
12.947924,6193
12.948922,7889
12.949924,8177
12.950924,8177
12.951923,7025
12.952924,6961
12.953926,5681
12.954925,6721
12.955924,6673
12.956924,8386
12.957922,8097
12.958944,5585
12.959927,6065
12.960924,7153
12.961926,7201
12.962924,7297
12.963924,6161
12.964922,6609
12.965923,6417
12.966925,6961
12.967926,6833
12.968925,6753
12.969923,6897
12.970924,7825
12.971924,7713
12.972926,6913
12.973924,6449
12.974925,6033
12.975923,6577
12.976925,6369
12.977924,8065
12.978926,7233
12.979923,6625
12.980922,7489
12.981923,6753
12.982925,5985
12.983924,7249
12.984922,6689
12.985926,6241
12.986924,7889
12.987924,8177
12.988924,7617
12.989926,6673
12.990923,7041
12.991922,6577
12.992926,6721
12.993923,7937
12.994925,7777
12.995922,5585
12.996924,6753
12.997923,6913
12.998923,7089
12.999923,7377
13.000923,7473
13.001927,6529
13.002924,6001
13.003926,6497
13.004924,7297
13.005924,7329
13.006926,6433
13.007923,6289
13.008926,6161
13.009925,6193
13.010923,7057
13.011925,7009
13.012923,8418
13.013925,7009
13.014923,5937
13.015924,5713
13.016924,6049
13.017924,7457
13.018923,7617
13.019925,7073
13.020923,8081
13.021926,6401
13.022942,5009
13.023927,5905
13.024926,7233
13.025926,8177
13.026925,6753
13.027922,6177
13.028924,6129
13.029924,6033
13.030923,6497
13.031925,7057
13.032924,6129
13.033925,8177
13.034925,7825
13.035927,5697
13.036922,5953
13.037924,6961
13.038925,7841
13.039924,7585
13.040926,6961
13.041922,6561
13.042926,6865
13.043923,6065
13.044924,6161
13.045924,6225
13.046923,6065
13.047922,7729
13.048923,7601
13.049924,6961
13.050925,6881
13.051923,6337
13.052923,7137
13.053924,6849
13.054923,7185
13.055923,6257
13.056922,6561
13.057924,7681
13.058923,6753
13.059922,4929
13.060925,7105
13.061924,7777
13.062923,6673
13.063924,6097
13.064925,6033
13.065925,6049
13.066924,6881
13.067924,6337
13.068922,6209
13.069925,7553
13.070926,7041
13.071923,6033
13.072923,7601
13.073924,7569
13.074924,6625
13.075924,6225
13.076924,6337
13.077924,6929
13.078924,6945
13.079926,6961
13.080924,6305
13.081925,6753
13.082925,6705
13.083923,6593
13.084925,7521
13.085923,7073
13.086943,5985
13.087931,6929
13.088925,7233
13.089925,5889
13.090924,5985
13.091924,5553
13.092924,6705
13.093926,6577
13.094926,6833
13.095924,7633
13.096924,6337
13.097925,6897
13.098924,6993
13.099926,6481
13.100922,6097
13.101924,6241
13.102926,6913
13.103924,6625
13.104924,7313
13.105923,7313
13.106927,7825
13.107924,6305
13.108925,6209
13.109926,6065
13.110926,6497
13.111924,8177
13.112927,8610
13.113923,6177
13.114926,6577
13.115925,6193
13.116926,6209
13.117924,6241
13.118924,6081
13.119926,7121
13.120924,6833
13.121926,6785
13.122925,6801
13.123924,5489
13.124924,5937
13.125925,6945
13.126926,7729
13.285786,6145
13.286496,6401
13.286971,6609
13.287419,7409
13.287864,6625
13.288376,6833
13.288816,5905
13.289264,6289
13.289707,5985
13.290174,6433
13.290622,4993
13.291071,4961
13.291518,4801
13.291973,5537
13.292424,6033
13.292925,6161
13.293925,6321
13.294922,6897
13.295925,8946
13.296923,6977
13.297924,7953
13.298926,7009
13.299924,5697
13.300923,5089
13.301922,4881
13.302926,6977
13.303924,6433
13.304925,6369
13.305924,6865
13.306926,9650
13.307926,6849
13.308925,6385
13.309924,6225
13.310925,5841
13.311924,5601
13.312926,7777
13.313923,6689
13.314923,6449
13.315925,6177
13.316925,6017
13.317923,6225
13.318925,6961
13.319924,6737
13.320923,6289
13.321924,6433
13.322924,6481
13.323924,6817
13.324925,6497
13.325923,6689
13.326924,7009
13.327924,5729
13.328923,5649
13.329923,5601
13.330924,7569
13.331924,6225
13.332924,5841
13.333923,5073
13.334927,6385
13.335922,6481
13.336924,6401
13.337922,7553
13.338926,7153
13.339925,6913
13.340923,6081
13.341925,6641
13.342942,5185
13.343930,6321
13.344925,6977
13.345924,6721
13.346924,5841
13.347925,5825
13.348927,6433
13.349926,5905
13.350922,6881
13.351923,7617
13.352924,6385
13.353925,6913
13.354925,7121
13.355921,6497
13.356926,6385
13.357925,6513
13.358925,6801
13.359924,5793
13.360925,5985
13.361926,6273
13.362926,5873
13.363924,5169
13.364925,7745
13.365923,5921
13.366925,6721
13.367925,7249
13.368923,5953
13.369924,6049
13.370923,5585
13.371923,4961
13.372925,7185
13.373924,6593
13.374923,6177
13.375924,7665
13.376923,7217
13.377923,5041
13.378924,6321
13.379922,5297
13.380925,6785
13.381926,7265
13.382925,6177
13.383922,6497
13.384922,6529
13.385923,5233
13.386923,6177
13.387924,6113
13.388923,6065
13.389924,5441
13.390922,5041
13.391925,6833
13.392925,6577
13.393924,6145
13.394924,5201
13.395924,5617
13.396924,7713
13.397925,7649
13.398922,6449
13.399922,5217
13.400924,5025
13.401924,5825
13.402922,5841
13.403925,7649
13.404925,6785
13.405924,8514
13.406942,7249
13.407928,6849
13.408927,6065
13.409923,5713
13.410924,6465
13.411924,5665
13.412925,7713
13.413924,5393
13.414923,4753
13.415922,6433
13.416924,5473
13.417927,6401
13.418924,5169
13.419924,7601
13.420924,7585
13.421921,5809
13.422925,6433
13.423925,7297
13.424922,6689
13.425925,6449
13.426925,5841
13.427924,4801
13.428925,6945
13.429923,7649
13.430924,5713
13.431923,5185
13.432924,5377
13.433926,6961
13.434922,5745
13.435924,6801
13.436923,6161
13.437926,6753
13.438922,7505
13.439924,7185
13.440923,5073
13.441924,5665
13.442925,5425
13.443923,6017
13.444924,6097
13.445922,4769
13.446926,6481
13.447924,5633
13.448926,8626
13.449924,6497
13.450923,5633
13.451925,5505
13.452926,7201
13.453924,7585
13.454922,5873
13.455925,7441
13.456925,6913
13.457922,5841
13.458924,6241
13.459924,5713
13.460924,5089
13.461925,6833
13.462925,6545
13.463924,6497
13.464925,6113
13.465924,6097
13.466927,6625
13.467925,5729
13.468926,6225
13.469926,6721
13.470940,6065
13.471927,7073
13.472924,5313
13.473925,6881
13.474925,6641
13.475925,5729
13.476924,5201
13.635350,8322
13.636214,9522
13.636847,6065
13.637457,6593
13.638056,6417
13.638724,5041
13.639324,5041
13.639927,6833
13.640522,6225
13.641143,5313
13.641742,5265
13.642347,5297
13.642950,7553
13.643551,7969
13.644162,6913
13.644765,6241
13.645372,4113
13.645999,5009
13.646602,6049
13.647209,6225
13.647925,7121
13.648922,7233
13.649924,4961
13.650924,5409
13.651924,6881
13.652922,4961
13.653924,4833
13.654927,6801
13.655925,5857
13.656924,5281
13.657925,5457
13.658925,6065
13.659924,7329
13.660927,5985
13.661924,5153
13.662948,5217
13.663926,4881
13.664925,5409
13.665922,5377
13.666924,4689
13.667923,6961
13.668924,6529
13.669922,7233
13.670926,5857
13.671925,7025
13.672924,6961
13.673926,6353
13.674924,5969
13.675923,6081
13.676923,6065
13.677925,5057
13.678923,5169
13.679924,5937
13.680925,4673
13.681926,5473
13.682924,6593
13.683924,5393
13.684926,7025
13.685924,4865
13.686924,4833
13.687925,5889
13.688926,6017
13.689925,7137
13.690925,5585
13.691925,5009
13.692925,5937
13.693924,6625
13.694924,5601
13.695925,4881
13.696923,5585
13.697924,5217
13.698925,7553
13.699925,5985
13.700926,6433
13.701924,5281
13.702926,7009
13.703924,6433
13.704924,5969
13.705925,4961
13.706924,4753
13.707926,5777
13.708926,5521
13.709924,7217
13.710924,5729
13.711925,6961
13.712923,5729
13.713923,5169
13.714922,4865
13.715924,5841
13.716923,4865
13.717926,5665
13.718925,7441
13.719925,6209
13.720925,5665
13.721924,6145
13.722924,5729
13.723924,5825
13.724923,7121
13.725924,7937
13.726943,5505
13.727934,6193
13.728926,5009
13.729925,5697
13.730925,5681
13.731926,5761
13.732926,5969
13.733924,5249
13.734922,8177
13.735924,5809
13.736927,5281
13.737924,8033
13.738925,6033
13.739925,4833
13.740926,4689
13.741925,5697
13.742922,7393
13.743924,5713
13.744922,5457
13.745925,4913
13.746922,7681
13.747922,7121
13.748924,5297
13.749924,5361
13.750924,5537
13.751925,5137
13.752925,7553
13.753923,5553
13.754926,4961
13.755922,5777
13.756925,8129
13.757924,6801
13.758925,5969
13.759925,5073
13.760924,4945
13.761924,5937
13.762922,5121
13.763922,6017
13.764924,5201
13.765926,4577
13.766925,5585
13.767924,4705
13.768924,5745
13.769924,9394
13.770926,7969
13.771924,6193
13.772923,6321
13.773924,7201
13.774924,5313
13.775923,5121
13.776926,6097
13.777926,5953
13.778923,5937
13.779924,5457
13.780924,5953
13.781924,5521
13.782925,4769
13.783924,5777
13.784923,6161
13.785924,6705
13.786925,5521
13.787924,5441
13.788926,5905
13.789926,5377
13.790941,5281
13.791927,6161
13.792924,5537
13.793923,6241
13.794924,5377
13.795923,6145
13.796925,5473
13.797924,4529
13.798924,5425
13.799926,8402
13.800924,7313
13.801924,4945
13.802923,5169
13.803927,5121
13.804925,5761
13.805924,7601
13.806923,5841
13.807924,5969
13.808924,7009
13.809924,5585
13.810925,4833
13.811924,5393
13.812926,6017
13.813923,6641
13.814924,6097
13.815924,5297
13.816926,5201
13.817924,5409
13.818924,6369
13.819923,6721
13.820924,5857
13.821924,4897
13.822924,5985
13.823925,5169
13.824924,5345
13.825924,5009
13.826925,5409
13.977401,8290
13.978427,6945
13.979225,5201
13.979998,4961
13.980755,7489
13.981586,7457
13.982505,5137
13.983292,5409
13.984059,6641
13.984841,6625
13.985608,7905
13.986371,6625
13.987136,6225
13.987898,5409
13.988665,5985
13.989435,7329
13.990200,6513
13.990988,6225
13.991750,5057
13.992520,6225
13.993291,5905
13.994068,5345
13.994836,6337
13.995609,6609
13.996383,5841
13.997153,6913
13.997927,7505
13.998697,5889
13.999470,5921
14.000248,4945
14.001021,6017
14.001798,5505
14.002579,5185
14.003395,5169
14.004175,5089
14.004953,6737
14.005922,7137
14.006925,5233
14.007925,6273
14.008922,6849
14.009925,5265
14.010923,5313
14.011924,5425
14.012924,6929
14.013924,6657
14.014924,5649
14.015924,5601
14.016924,6097
14.017922,6529
14.018924,5521
14.019924,5937
14.020923,5569
14.021922,5777
14.022924,6033
14.023925,7249
14.024927,6273
14.025924,5073
14.026923,5377
14.027926,5601
14.028926,6321
14.029924,5697
14.030926,6849
14.031922,6721
14.032924,6161
14.033926,5809
14.044213,7137
14.044447,6849
14.044665,6449
14.044878,6289
14.045094,5985
14.045307,7105
14.045521,7249
14.045738,7681
14.045961,8049
14.046180,7873
14.046939,7009
14.047929,6065
14.048927,5425
14.049927,6161
14.050926,6929
14.051926,5569
14.052924,5473
14.053924,5233
