Tempo(s),EMG_Value
0.0000,1344
0.0020,1488
0.0040,1376
0.0060,1008
0.0080,1184
0.0100,2000
0.0120,1232
0.0140,1600
0.0160,928
0.0180,1136
0.0200,1312
0.0220,1520
0.0240,1040
0.0260,1024
0.0280,1104
0.0300,1056
0.0320,1200
0.0340,1968
0.0360,1856
0.0380,1296
0.0400,1312
0.0420,1280
0.0440,1360
0.0460,1488
0.0480,1488
0.0500,1344
0.0520,1216
0.0540,1488
0.0560,1088
0.0580,1568
0.0600,1488
0.0620,1728
0.0640,1440
0.0660,6113
0.0680,4321
0.0700,2320
0.0720,1600
0.0740,1408
0.0760,1152
0.0780,1264
0.0800,1888
0.0820,1840
0.0840,1120
0.0860,1056
0.0880,1408
0.0900,1104
0.0920,1584
0.0940,1888
0.0960,976
0.0980,992
0.1000,912
0.1020,2400
0.1040,2224
0.1060,1840
0.1080,1232
0.1100,864
0.1120,1152
0.1140,1408
0.1160,1056
0.1180,2752
0.1200,1552
0.1220,1344
0.1240,1184
0.1260,1328
0.1280,1488
0.1300,1568
0.1320,1376
0.1340,1504
0.1360,1072
0.1380,5425
0.1400,5857
0.1420,1296
0.1440,1040
0.1460,1600
0.1480,1824
0.1500,1792
0.1520,1696
0.1540,1376
0.1560,1984
0.1580,1184
0.1600,1552
0.1620,1312
0.1640,1472
0.1660,1472
0.1680,1424
0.1700,1536
0.1720,1296
0.1740,1488
0.1760,2560
0.1780,1760
0.1800,1328
0.1820,1248
0.1840,944
0.1860,1328
0.1880,1440
0.1900,1280
0.1920,1536
0.1940,2240
0.1960,2048
0.1980,1744
0.2000,1072
0.2020,1840
0.2040,1648
0.2060,1008
0.2080,1248
0.2100,1296
0.2120,1552
0.2140,1424
0.2160,1792
0.2180,1344
0.2200,1216
0.2220,1120
0.2240,1616
0.2260,1280
0.2280,1808
0.2300,1680
0.2320,1584
0.2340,1600
0.2360,1040
0.2380,1056
0.2400,1808
0.2420,1280
0.2440,1152
0.2460,1424
0.2480,2496
0.2500,1184
0.2520,1408
0.2540,1248
0.2560,1376
0.2580,1504
0.2600,1600
0.2620,1312
0.2640,2240
0.2660,1952
0.2680,1312
0.2700,1184
0.2720,992
0.2740,976
0.2760,1920
0.2780,992
0.2800,1488
0.2820,1312
0.2840,1872
0.2860,2608
0.2880,1168
0.2900,1200
0.2920,1504
0.2940,1664
0.2960,1360
0.2980,1136
0.3000,1536
0.3020,1296
0.3040,1088
0.3060,1584
0.3080,1296
0.3100,1632
0.3120,1472
0.3140,1072
0.3160,1536
0.3180,1472
0.3200,1168
0.3220,2400
0.3240,1040
0.3260,1840
0.3280,1344
0.3300,1552
0.3320,1248
0.3340,1872
0.3360,1248
0.3380,1216
0.3400,1248
0.3420,1056
0.3440,1568
0.3460,1600
0.3480,1728
0.3500,1376
0.3520,1376
0.3540,1120
0.3560,976
0.3580,1568
0.3600,1024
0.3620,2128
0.3640,1136
0.3660,1456
0.3680,2080
0.3700,1312
0.3720,1360
0.3740,1104
0.3760,1424
0.3780,2368
0.3800,2320
0.3820,1440
0.3840,3616
0.3860,1232
0.3880,1968
0.3900,2160
0.3920,1616
0.3940,1488
0.3960,1728
0.3980,1792
0.4000,1440
0.4020,1552
0.4040,1024
0.4060,1248
0.4080,1152
0.4100,2304
0.4120,1328
0.4140,1808
0.4160,928
0.4180,3120
0.4200,3600
0.4220,1824
0.4240,1504
0.4260,1792
0.4280,1072
0.4300,1104
0.4320,1136
0.4340,1120
0.4360,1120
0.4380,1680
0.4400,1424
0.4420,1712
0.4440,1472
0.4460,1216
0.4480,1488
0.4500,1120
0.4520,1040
0.4540,1936
0.4560,1664
0.4580,1504
0.4600,1328
0.4620,1984
0.4640,1824
0.4660,960
0.4680,1424
0.4700,960
0.4720,1200
0.4740,2080
0.4760,2128
0.4780,976
0.4800,1408
0.4820,1568
0.4840,1344
0.4860,1216
0.4880,1584
0.4900,1680
0.4920,2656
0.4940,1296
0.4960,1344
0.4980,1616
0.5000,1120
0.5020,1088
0.5040,1056
0.5060,1936
0.5080,1216
0.5100,1664
0.5120,4977
0.5140,3232
0.5160,1744
0.5180,1552
0.5200,1568
0.5220,1200
0.5240,1648
0.5260,1120
0.5280,1152
0.5300,1088
0.5320,2000
0.5340,2144
0.5360,1424
0.5380,1568
0.5400,1088
0.5420,1104
0.5440,1600
0.5460,1280
0.5480,1424
0.5500,1888
0.5520,896
0.5540,1376
0.5560,1024
0.5580,1504
0.5600,2320
0.5620,1600
0.5640,1088
0.5660,1536
0.5680,1184
0.5700,1360
0.5720,2400
0.5740,1280
0.5760,2272
0.5780,2576
0.5800,1632
0.5820,1296
0.5840,1344
0.5860,1296
0.5880,1072
0.5900,1472
0.5920,1120
0.5940,1760
0.5960,1472
0.5980,1488
0.6000,1216
0.6020,1328
0.6040,8226
0.6060,4401
0.6080,1696
0.6100,1520
0.6120,2912
0.6140,1232
0.6160,1312
0.6180,960
0.6200,1360
0.6220,1664
0.6240,1200
0.6260,1216
0.6280,1200
0.6300,1280
0.6320,1440
0.6340,1696
0.6360,1232
0.6380,1392
0.6400,1360
0.6420,832
0.6440,928
0.6460,1344
0.6480,1088
0.6500,992
0.6520,1376
0.6540,1680
0.6560,1296
0.6580,1936
0.6600,6609
0.6620,2528
0.6640,2624
0.6660,1760
0.6680,1600
0.6700,1504
0.6720,3008
0.6740,1408
0.6760,3952
0.6780,2720
0.6800,1776
0.6820,1280
0.6840,2048
0.6860,1408
0.6880,1200
0.6900,1296
0.6920,1120
0.6940,1616
0.6960,1744
0.6980,1360
0.7000,1056
0.7020,1376
0.7040,1312
0.7060,1040
0.7080,1184
0.7100,2480
0.7120,1824
0.7140,1232
0.7160,1008
0.7180,1152
0.7200,1600
0.7220,1536
0.7240,1104
0.7260,1296
0.7280,1472
0.7300,1296
0.7320,1040
0.7340,1408
0.7360,1088
0.7380,880
0.7400,1456
0.7420,1200
0.7440,1856
0.7460,1312
0.7480,1360
0.7500,1376
0.7520,1264
0.7540,1360
0.7560,1232
0.7580,2784
0.7600,2816
0.7620,1552
0.7640,2176
0.7660,2592
0.7680,1568
0.7700,1456
0.7720,1200
0.7740,7633
0.7760,2944
0.7780,1808
0.7800,1504
0.7820,1440
0.7840,1504
0.7860,1312
0.7880,1728
0.7900,944
0.7920,1536
0.7940,1200
0.7960,1264
0.7980,1360
0.8000,1248
0.8020,1536
0.8040,1152
0.8060,1248
0.8080,2016
0.8100,1440
0.8120,1440
0.8140,1552
0.8160,1200
0.8180,1568
0.8200,1296
0.8220,1104
0.8240,1968
0.8260,1824
0.8280,1664
0.8300,1712
0.8320,1104
0.8340,1408
0.8360,1184
0.8380,1328
0.8400,1408
0.8420,1696
0.8440,1024
0.8460,1120
0.8480,2432
0.8500,1536
0.8520,3344
0.8540,3248
0.8560,1312
0.8580,1264
0.8600,1424
0.8620,1088
0.8640,1536
0.8660,1168
0.8680,1216
0.8700,1712
0.8720,1152
0.8740,1104
0.8760,1248
0.8780,1696
0.8800,1408
0.8820,1440
0.8840,1584
0.8860,1248
0.8880,1040
0.8900,1552
0.8920,1872
0.8940,864
0.8960,1824
0.8980,1344
0.9000,1824
0.9020,1792
0.9040,1120
0.9060,1312
0.9080,1312
0.9100,1408
0.9120,1040
0.9140,1552
0.9160,2352
0.9180,1696
0.9200,1648
0.9220,2016
0.9240,1488
0.9260,1344
0.9280,1408
0.9300,1472
0.9320,1424
0.9340,1520
0.9360,2480
0.9380,2176
0.9400,896
0.9420,1888
0.9440,1264
0.9460,3648
0.9480,1568
0.9500,2080
0.9520,1072
0.9540,1440
0.9560,1120
0.9580,1616
0.9600,1376
0.9620,1200
0.9640,1120
0.9660,1088
0.9680,2160
0.9700,1584
0.9720,1552
0.9740,2496
0.9760,1696
0.9780,2176
0.9800,3328
0.9820,2864
0.9840,1136
0.9860,1312
0.9880,1152
0.9900,1216
0.9920,1280
0.9940,1056
0.9960,1712
0.9980,1232
1.0000,1296
1.0020,1328
1.0040,4689
1.0060,1696
1.0080,3744
1.0100,2208
1.0120,1200
1.0140,1632
1.0160,1888
1.0180,1232
1.0200,1488
1.0220,2048
1.0240,944
1.0260,1552
1.0280,1584
1.0300,1808
1.0320,1616
1.0340,3136
1.0360,5297
1.0380,2384
1.0400,1376
1.0420,1232
1.0440,1296
1.0460,1792
1.0480,1280
1.0500,1456
1.0520,1360
1.0540,1264
1.0560,1744
1.0580,2112
1.0600,1504
1.0620,1808
1.0640,1968
1.0660,1168
1.0680,2096
1.0700,1088
1.0720,1712
1.0740,1024
1.0760,1520
1.0780,1104
1.0800,1216
1.0820,1472
1.0840,1120
1.0860,1104
1.0880,1216
1.0900,2336
1.0920,1696
1.0940,896
1.0960,1456
1.0980,1152
1.1000,1584
1.1020,2960
1.1040,1584
1.1060,1536
1.1080,5041
1.1100,1472
1.1120,1408
1.1140,1536
1.1160,1248
1.1180,1312
1.1200,1712
1.1220,1312
1.1240,1088
1.1260,1088
1.1280,960
1.1300,1488
1.1320,1456
1.1340,2368
1.1360,976
1.1380,6545
1.1400,5185
1.1420,1328
1.1440,1168
1.1460,1824
1.1480,1680
1.1500,1024
1.1520,1360
1.1540,736
1.1560,1472
1.1580,1568
1.1600,1648
1.1620,1152
1.1640,1488
1.1660,1040
1.1680,896
1.1700,1584
1.1720,1360
1.1740,1168
1.1760,2080
1.1780,1360
1.1800,1632
1.1820,1488
1.1840,1136
1.1860,1312
1.1880,944
1.1900,1632
1.1920,1840
1.1940,1040
1.1960,1552
1.1980,1824
1.2000,1728
1.2020,1408
1.2040,1232
1.2060,1504
1.2080,1168
1.2100,1456
1.2120,1952
1.2140,1472
1.2160,1168
1.2180,1440
1.2200,960
1.2220,3328
1.2240,2544
1.2260,976
1.2280,944
1.2300,1968
1.2320,1360
1.2340,1072
1.2360,2016
1.2380,1760
1.2400,1296
1.2420,3456
1.2440,4417
1.2460,1328
1.2480,1056
1.2500,2272
1.2520,8978
1.2540,6865
1.2560,1312
1.2580,2224
1.2600,1728
1.2620,1344
1.2640,1072
1.2660,1328
1.2680,1424
1.2700,1488
1.2720,1584
1.2740,880
1.2760,1216
1.2780,2736
1.2800,1472
1.2820,1552
1.2840,1024
1.2860,1216
1.2880,1200
1.2900,2528
1.2920,1440
1.2940,1312
1.2960,3120
1.2980,1168
1.3000,1312
1.3020,1296
1.3040,1024
1.3060,1024
1.3080,2432
1.3100,1024
1.3120,1184
1.3140,1088
1.3160,1472
1.3180,1504
1.3200,944
1.3220,1296
1.3240,2048
1.3260,992
1.3280,1088
1.3300,1856
1.3320,1424
1.3340,1040
1.3360,1360
1.3380,1040
1.3400,848
1.3420,1696
1.3440,1488
1.3460,1600
1.3480,3296
1.3500,1184
1.3520,1104
1.3540,1488
1.3560,1584
1.3580,1376
1.3600,1328
1.3620,1376
1.3640,1280
1.3660,1488
1.3680,912
1.3700,1120
1.3720,1216
1.3740,1232
1.3760,1280
1.3780,1520
1.3800,1472
1.3820,1184
1.3840,1776
1.3860,864
1.3880,1152
1.3900,2576
1.3920,2352
1.3940,1744
1.3960,1248
1.3980,1488
1.4000,1504
1.4020,1104
1.4040,1360
1.4060,1008
1.4080,1456
1.4100,1264
1.4120,1664
1.4140,1200
1.4160,1296
1.4180,1040
1.4200,1696
1.4220,1328
1.4240,1360
1.4260,1200
1.4280,1776
1.4300,1344
1.4320,1344
1.4340,1280
1.4360,1456
1.4380,1376
1.4400,864
1.4420,1488
1.4440,1280
1.4460,1472
1.4480,1312
1.4500,976
1.4520,1120
1.4540,1424
1.4560,1072
1.4580,1056
1.4600,1504
1.4620,1312
1.4640,5569
1.4660,944
1.4680,1376
1.4700,1296
1.4720,1520
1.4740,1040
1.4760,1248
1.4780,1536
1.4800,1072
1.4820,1728
1.4840,1760
1.4860,1712
1.4880,2064
1.4900,2352
1.4920,960
1.4940,1472
1.4960,1520
1.4980,1072
1.5000,1360
1.5020,5377
1.5040,2496
1.5060,1312
1.5080,1104
1.5100,1744
1.5120,1552
1.5140,1216
1.5160,1216
1.5180,1472
1.5200,1984
1.5220,1200
1.5240,1760
1.5260,1792
1.5280,1104
1.5300,1200
1.5320,1552
1.5340,2016
1.5360,1936
1.5380,1584
1.5400,1408
1.5420,2256
1.5440,1312
1.5460,1120
1.5480,1600
1.5500,1184
1.5520,1840
1.5540,1200
1.5560,1632
1.5580,976
1.5600,2144
1.5620,1616
1.5640,3648
1.5660,1840
1.5680,848
1.5700,1216
1.5720,1408
1.5740,1568
1.5760,1824
1.5780,1856
1.5800,1024
1.5820,1216
1.5840,2336
1.5860,2464
1.5880,1312
1.5900,1456
1.5920,1488
1.5940,1632
1.5960,1104
1.5980,1120
1.6000,1552
1.6020,1472
1.6040,1584
1.6060,8177
1.6080,3104
1.6100,2832
1.6120,1488
1.6140,1248
1.6160,1632
1.6180,1088
1.6200,1696
1.6220,1472
1.6240,1632
1.6260,1744
1.6280,1440
1.6300,1312
1.6320,1696
1.6340,2512
1.6360,1744
1.6380,2480
1.6400,1296
1.6420,1312
1.6440,1760
1.6460,1360
1.6480,2064
1.6500,1248
1.6520,992
1.6540,1424
1.6560,992
1.6580,1168
1.6600,1056
1.6620,1168
1.6640,1440
1.6660,1376
1.6680,1488
1.6700,1440
1.6720,1744
1.6740,1328
1.6760,1408
1.6780,1360
1.6800,1488
1.6820,1504
1.6840,1312
1.6860,1328
1.6880,2320
1.6900,1840
1.6920,1472
1.6940,1296
1.6960,1232
1.6980,1824
1.7000,1312
1.7020,1360
1.7040,1136
1.7060,1216
1.7080,1328
1.7100,1488
1.7120,1584
1.7140,1520
1.7160,1472
1.7180,1984
1.7200,2224
1.7220,2656
1.7240,1296
1.7260,1328
1.7280,960
1.7300,1488
1.7320,1776
1.7340,832
1.7360,1504
1.7380,1232
1.7400,1248
1.7420,976
1.7440,1376
1.7460,1520
1.7480,1056
1.7500,1472
1.7520,1312
1.7540,1760
1.7560,1328
1.7580,1488
1.7600,2512
1.7620,6897
1.7640,3344
1.7660,1744
1.7680,1888
1.7700,1280
1.7720,1472
1.7740,1488
1.7760,1088
1.7780,1552
1.7800,8610
1.7820,6017
1.7840,1088
1.7860,1488
1.7880,1056
1.7900,2368
1.7920,1104
1.7940,1088
1.7960,1440
1.7980,1856
1.8000,1456
1.8020,1680
1.8040,1728
1.8060,1680
1.8080,1152
1.8100,1184
1.8120,1328
1.8140,1328
1.8160,976
1.8180,1392
1.8200,2080
1.8220,2208
1.8240,1248
1.8260,2688
1.8280,1648
1.8300,1424
1.8320,1344
1.8340,1456
1.8360,1536
1.8380,1296
1.8400,1136
1.8420,3136
1.8440,2624
1.8460,1040
1.8480,1680
1.8500,1920
1.8520,3136
1.8540,1440
1.8560,1056
1.8580,1440
1.8600,1184
1.8620,1424
1.8640,1552
1.8660,1728
1.8680,1472
1.8700,1296
1.8720,1120
1.8740,1424
1.8760,1328
1.8780,1344
1.8800,912
1.8820,6961
1.8840,8177
1.8860,1376
1.8880,1360
1.8900,976
1.8920,1072
1.8940,2800
1.8960,1936
1.8980,1072
1.9000,1952
1.9020,1104
1.9040,1168
1.9060,1120
1.9080,1088
1.9100,1712
1.9120,1344
1.9140,1584
1.9160,1568
1.9180,1728
1.9200,1056
1.9220,1104
1.9240,1216
1.9260,1408
1.9280,1120
1.9300,1840
1.9320,1120
1.9340,1616
1.9360,1232
1.9380,1232
1.9400,1488
1.9420,1392
1.9440,1728
1.9460,1440
1.9480,1584
1.9500,6273
1.9520,3504
1.9540,1504
1.9560,2128
1.9580,2128
1.9600,1664
1.9620,1232
1.9640,1424
1.9660,1248
1.9680,1200
1.9700,1888
1.9720,1152
1.9740,1216
1.9760,1040
1.9780,7841
1.9800,4353
1.9820,1472
1.9840,1168
1.9860,1584
1.9880,1280
1.9900,1056
1.9920,1104
1.9940,1200
1.9960,1328
1.9980,1472
2.0000,1184
2.0020,1360
2.0040,864
2.0060,1248
2.0080,1568
2.0100,1088
2.0120,1712
2.0140,1488
2.0160,1344
2.0180,1104
2.0200,992
2.0220,2144
2.0240,960
2.0260,1568
2.0280,1328
2.0300,1104
2.0320,1232
2.0340,1056
2.0360,1072
2.0380,896
2.0400,1296
2.0420,1616
2.0440,1984
2.0460,928
2.0480,1440
2.0500,2384
2.0520,1040
2.0540,2224
2.0560,1760
2.0580,1232
2.0600,1280
2.0620,1968
2.0640,992
2.0660,1328
2.0680,1216
2.0700,1456
2.0720,1184
2.0740,1152
2.0760,1680
2.0780,1376
2.0800,1120
2.0820,1280
2.0840,1024
2.0860,1984
2.0880,1632
2.0900,1200
2.0920,1472
2.0940,2080
2.0960,1344
2.0980,1504
2.1000,720
2.1020,1280
2.1040,1408
2.1060,976
2.1080,1424
2.1100,1184
2.1120,1088
2.1140,1376
2.1160,1504
2.1180,928
2.1200,1440
2.1220,2064
2.1240,1104
2.1260,1664
2.1280,1232
2.1300,1328
2.1320,1776
2.1340,1200
2.1360,1552
2.1380,7121
2.1400,2288
2.1420,1088
2.1440,1152
2.1460,1504
2.1480,1408
2.1500,944
2.1520,1168
2.1540,1568
2.1560,1440
2.1580,1216
2.1600,1968
2.1620,1328
2.1640,1344
2.1660,2400
2.1680,2432
2.1700,976
2.1720,1104
2.1740,1152
2.1760,1440
2.1780,2192
2.1800,1408
2.1820,1056
2.1840,1376
2.1860,1040
2.1880,1072
2.1900,944
2.1920,1104
2.1940,1232
2.1960,976
2.1980,1824
2.2000,1408
2.2020,1248
2.2040,1440
2.2060,1360
2.2080,1312
2.2100,1616
2.2120,1296
2.2140,1040
2.2160,1248
2.2180,1424
2.2200,976
2.2220,1056
2.2240,1216
2.2260,2480
2.2280,896
2.2300,1536
2.2320,1152
2.2340,1328
2.2360,2896
2.2380,832
2.2400,2096
2.2420,1232
2.2440,1088
2.2460,2064
2.2480,1568
2.2500,960
2.2520,1440
2.2540,1408
2.2560,1024
2.2580,1056
2.2600,1184
2.2620,1008
2.2640,1024
2.2660,1552
2.2680,1296
2.2700,1488
2.2720,1632
2.2740,1184
2.2760,2224
2.2780,4705
2.2800,5057
2.2820,1472
2.2840,1024
2.2860,1424
2.2880,912
2.2900,1456
2.2920,960
2.2940,1472
2.2960,1024
2.2980,1712
2.3000,1440
2.3020,992
2.3040,1296
2.3060,2592
2.3080,1072
2.3100,1424
2.3120,1648
2.3140,1424
2.3160,1104
2.3180,1296
2.3200,1664
2.3220,1296
2.3240,768
2.3260,1312
2.3280,1040
2.3300,1104
2.3320,1424
2.3340,1760
2.3360,1040
2.3380,1056
2.3400,1184
2.3420,1504
2.3440,2080
2.3460,1296
2.3480,1360
2.3500,1424
2.3520,1296
2.3540,1088
2.3560,1520
2.3580,928
2.3600,1072
2.3620,1472
2.3640,1088
2.3660,1040
2.3680,2048
2.3700,1488
2.3720,1184
2.3740,1296
2.3760,1216
2.3780,1104
2.3800,1712
2.3820,1632
2.3840,2128
2.3860,1824
2.3880,1680
2.3900,3728
2.3920,5505
2.3940,1616
2.3960,4449
2.3980,2912
2.4000,1872
2.4020,2128
2.4040,1824
2.4060,976
2.4080,1824
2.4100,3776
2.4120,992
2.4140,1600
2.4160,1536
2.4180,1200
2.4200,1424
2.4220,928
2.4240,1168
2.4260,1104
2.4280,1440
2.4300,1584
2.4320,1200
2.4340,1344
2.4360,1440
2.4380,1296
2.4400,1344
2.4420,1072
2.4440,1792
2.4460,960
2.4480,1232
2.4500,1216
2.4520,1232
2.4540,1568
2.4560,2912
2.4580,1456
2.4600,1168
2.4620,1296
2.4640,1520
2.4660,3328
2.4680,2128
2.4700,1296
2.4720,1456
2.4740,1760
2.4760,768
2.4780,2000
2.4800,1728
2.4820,1584
2.4840,1248
2.4860,1232
2.4880,4401
2.4900,2352
2.4920,2256
2.4940,1120
2.4960,1856
2.4980,1728
2.5000,1152
2.5020,1024
2.5040,1488
2.5060,1280
2.5080,960
2.5100,1280
2.5120,1184
2.5140,1184
2.5160,1312
2.5180,1200
2.5200,1568
2.5220,1104
2.5240,1264
2.5260,1344
2.5280,1424
2.5300,1488
2.5320,1504
2.5340,1760
2.5360,1296
2.5380,1104
2.5400,992
2.5420,1328
2.5440,1408
2.5460,1312
2.5480,1712
2.5500,1120
2.5520,1232
2.5540,1680
2.5560,1120
2.5580,1712
2.5600,1296
2.5620,976
2.5640,1360
2.5660,3344
2.5680,1616
2.5700,1264
2.5720,1728
2.5740,1216
2.5760,1680
2.5780,2576
2.5800,944
2.5820,1280
2.5840,1424
2.5860,1040
2.5880,1376
2.5900,1040
2.5920,2912
2.5940,4337
2.5960,2016
2.5980,1360
2.6000,1184
2.6020,1248
2.6040,1696
2.6060,2656
2.6080,960
2.6100,1312
2.6120,944
2.6140,2192
2.6160,1072
2.6180,1264
2.6200,912
2.6220,1328
2.6240,1920
2.6260,832
2.6280,1504
2.6300,1488
2.6320,2272
2.6340,1040
2.6360,1264
2.6380,2112
2.6400,1072
2.6420,1488
2.6440,1456
2.6460,1808
2.6480,1296
2.6500,1504
2.6520,848
2.6540,1344
2.6560,1344
2.6580,960
2.6600,1344
2.6620,928
2.6640,944
2.6660,1280
2.6680,1408
2.6700,1088
2.6720,1120
2.6740,1584
2.6760,1168
2.6780,1424
2.6800,1536
2.6820,1344
2.6840,928
2.6860,1616
2.6880,1296
2.6900,976
2.6920,1488
2.6940,1408
2.6960,1440
2.6980,1232
2.7000,6433
2.7020,5537
2.7040,1056
2.7060,1184
2.7080,864
2.7100,944
2.7120,1808
2.7140,1216
2.7160,1536
2.7180,1152
2.7200,1664
2.7220,992
2.7240,1152
2.7260,1712
2.7280,976
2.7300,2304
2.7320,1184
2.7340,1712
2.7360,1776
2.7380,1248
2.7400,1216
2.7420,1600
2.7440,1232
2.7460,1808
2.7480,1104
2.7500,1360
2.7520,1120
2.7540,2128
2.7560,1440
2.7580,1312
2.7600,1360
2.7620,1856
2.7640,1296
2.7660,1424
2.7680,2000
2.7700,1024
2.7720,1536
2.7740,960
2.7760,1360
2.7780,1408
2.7800,1280
2.7820,1552
2.7840,1888
2.7860,1472
2.7880,1024
2.7900,1520
2.7920,1312
2.7940,1088
2.7960,944
2.7980,1280
2.8000,2176
2.8020,1760
2.8040,1744
2.8060,1504
2.8080,1024
2.8100,1024
2.8120,1328
2.8140,1904
2.8160,1440
2.8180,1296
2.8200,1760
2.8220,1104
2.8240,1376
2.8260,1152
2.8280,1360
2.8300,1504
2.8320,1344
2.8340,1216
2.8360,1152
2.8380,1664
2.8400,1248
2.8420,1568
2.8440,1216
2.8460,1488
2.8480,1488
2.8500,1344
2.8520,1232
2.8540,1184
2.8560,1008
2.8580,1488
2.8600,2256
2.8620,1296
2.8640,1120
2.8660,1840
2.8680,1664
2.8700,1088
2.8720,1216
2.8740,1280
2.8760,1440
2.8780,1056
2.8800,1280
2.8820,1168
2.8840,1632
2.8860,1152
2.8880,1824
2.8900,928
2.8920,1664
2.8940,1168
2.8960,1120
2.8980,1072
2.9000,3472
2.9020,3968
2.9040,2720
2.9060,1264
2.9080,1232
2.9100,2112
2.9120,1152
2.9140,1632
2.9160,1248
2.9180,1104
2.9200,1280
2.9220,1568
2.9240,1376
2.9260,1584
2.9280,896
2.9300,2304
2.9320,1216
2.9340,1376
2.9360,1328
2.9380,1008
2.9400,1072
2.9420,1168
2.9440,1600
2.9460,1536
2.9480,1280
2.9500,1104
2.9520,1328
2.9540,1744
2.9560,1872
2.9580,2400
2.9600,1440
2.9620,1296
2.9640,1488
2.9660,1408
2.9680,1536
2.9700,1120
2.9720,2304
2.9740,1424
2.9760,896
2.9780,1312
2.9800,1632
2.9820,1056
2.9840,992
2.9860,1824
2.9880,1536
2.9900,1296
2.9920,1248
2.9940,2224
2.9960,1600
2.9980,1264
3.0000,1248
3.0020,944
3.0040,960
3.0060,1248
3.0080,5937
3.0100,3504
3.0120,1984
3.0140,1584
3.0160,1408
3.0180,1088
3.0200,1088
3.0220,944
3.0240,1440
3.0260,1456
3.0280,1296
3.0300,1104
3.0320,1008
3.0340,1040
3.0360,1888
3.0380,1456
3.0400,1248
3.0420,1536
3.0440,1552
3.0460,1360
3.0480,3040
3.0500,1728
3.0520,1104
3.0540,2272
3.0560,1088
3.0580,1072
3.0600,2000
3.0620,1344
3.0640,1680
3.0660,1968
3.0680,1072
3.0700,1200
3.0720,1072
3.0740,1744
3.0760,1152
3.0780,1360
3.0800,1680
3.0820,1472
3.0840,2192
3.0860,1920
3.0880,1200
3.0900,992
3.0920,1120
3.0940,1424
3.0960,1536
3.0980,1296
3.1000,1072
3.1020,1072
3.1040,1408
3.1060,1440
3.1080,1168
3.1100,1760
3.1120,1424
3.1140,4737
3.1160,3136
3.1180,2720
3.1200,1504
3.1220,1088
3.1240,1328
3.1260,1088
3.1280,1184
3.1300,1392
3.1320,1584
3.1340,1184
3.1360,1328
3.1380,944
3.1400,960
3.1420,1056
3.1440,1344
3.1460,1408
3.1480,1360
3.1500,1264
3.1520,976
3.1540,3040
3.1560,1424
3.1580,1008
3.1600,1568
3.1620,896
3.1640,1472
3.1660,1536
3.1680,1024
3.1700,3392
3.1720,2176
3.1740,1408
3.1760,1568
3.1780,1824
3.1800,1456
3.1820,1024
3.1840,1408
3.1860,1040
3.1880,1120
3.1900,1072
3.1920,1504
3.1940,1440
3.1960,1392
3.1980,1152
3.2000,1616
3.2020,1424
3.2040,1760
3.2060,1232
3.2080,1024
3.2100,1184
3.2120,1440
3.2140,992
3.2160,1152
3.2180,1328
3.2200,1504
3.2220,1216
3.2240,1120
3.2260,2160
3.2280,6929
3.2300,8322
3.2320,1216
3.2340,1056
3.2360,1184
3.2380,2784
3.2400,1936
3.2420,1984
3.2440,1120
3.2460,1328
3.2480,1872
3.2500,1168
3.2520,1552
3.2540,1200
3.2560,1232
3.2580,1120
3.2600,1072
3.2620,1472
3.2640,1024
3.2660,1504
3.2680,1584
3.2700,1344
3.2720,1664
3.2740,1200
3.2760,1376
3.2780,1328
3.2800,1744
3.2820,1376
3.2840,1744
3.2860,1312
3.2880,1184
3.2900,1184
3.2920,1552
3.2940,1040
3.2960,1280
3.2980,3792
3.3000,960
3.3020,1232
3.3040,1296
3.3060,912
3.3080,944
3.3100,1440
3.3120,944
3.3140,1232
3.3160,1440
3.3180,1360
3.3200,1296
3.3220,1168
3.3240,1184
3.3260,1712
3.3280,1104
3.3300,1488
3.3320,1216
3.3340,1152
3.3360,1920
3.3380,4641
3.3400,5873
3.3420,1328
3.3440,1152
3.3460,1376
3.3480,1568
3.3500,1456
3.3520,944
3.3540,1488
3.3560,1248
3.3580,1440
3.3600,1344
3.3620,800
3.3640,2752
3.3660,864
3.3680,1152
3.3700,1248
3.3720,1472
3.3740,1184
3.3760,1568
3.3780,1568
3.3800,1072
3.3820,1136
3.3840,2480
3.3860,1360
3.3880,2880
3.3900,1472
3.3920,1360
3.3940,1376
3.3960,1200
3.3980,1120
3.4000,1424
3.4020,1376
3.4040,1184
3.4060,992
3.4080,1184
3.4100,1920
3.4120,1312
3.4140,2720
3.4160,2816
3.4180,1200
3.4200,1392
3.4220,1584
3.4240,1008
3.4260,1232
3.4280,1568
3.4300,1920
3.4320,1664
3.4340,1696
3.4360,1376
3.4380,1568
3.4400,1024
3.4420,1504
3.4440,1216
3.4460,2832
3.4480,2832
3.4500,1536
3.4520,912
3.4540,3648
3.4560,1888
3.4580,2336
3.4600,1296
3.4620,1232
3.4640,1552
3.4660,1440
3.4680,1200
3.4700,1568
3.4720,2176
3.4740,2896
3.4760,1376
3.4780,1344
3.4800,1504
3.4820,1872
3.4840,1232
3.4860,896
3.4880,1120
3.4900,1568
3.4920,3392
3.4940,1424
3.4960,1072
3.4980,1760
3.5000,1600
3.5020,1216
3.5040,1424
3.5060,1680
3.5080,1408
3.5100,1696
3.5120,1920
3.5140,1936
3.5160,1104
3.5180,1120
3.5200,1408
3.5220,1216
3.5240,1632
3.5260,1408
3.5280,1232
3.5300,1072
3.5320,1616
3.5340,1344
3.5360,928
3.5380,1424
3.5400,1504
3.5420,1328
3.5440,1184
3.5460,1728
3.5480,992
3.5500,1392
3.5520,2480
3.5540,2464
3.5560,1232
3.5580,1344
3.5600,1216
3.5620,1424
3.5640,1280
3.5660,832
3.5680,2112
3.5700,1280
3.5720,1312
3.5740,1632
3.5760,1056
3.5780,1392
3.5800,1024
3.5820,1200
3.5840,1056
3.5860,1600
3.5880,1760
3.5900,1088
3.5920,1936
3.5940,1744
3.5960,1408
3.5980,1216
3.6000,1360
3.6020,1152
3.6040,976
3.6060,1472
3.6080,1408
3.6100,960
3.6120,1088
3.6140,2384
3.6160,1344
3.6180,960
3.6200,1824
3.6220,1248
3.6240,1552
3.6260,1680
3.6280,1200
3.6300,1104
3.6320,2016
3.6340,1168
3.6360,1488
3.6380,1200
3.6400,1520
3.6420,1760
3.6440,1200
3.6460,1216
3.6480,1328
3.6500,1424
3.6520,1056
3.6540,1072
3.6560,1712
3.6580,2912
3.6600,7121
3.6620,6513
3.6640,1296
3.6660,1376
3.6680,1456
3.6700,1488
3.6720,1216
3.6740,1360
3.6760,1680
3.6780,1120
3.6800,1120
3.6820,1408
3.6840,1232
3.6860,1280
3.6880,1104
3.6900,1152
3.6920,1536
3.6940,992
3.6960,1328
3.6980,1312
3.7000,1344
3.7020,1056
3.7040,1216
3.7060,1488
3.7080,1776
3.7100,1584
3.7120,1568
3.7140,1360
3.7160,1120
3.7180,1344
3.7200,1328
3.7220,1456
3.7240,3136
3.7260,2000
3.7280,1312
3.7300,976
3.7320,928
3.7340,1200
3.7360,1824
3.7380,2112
3.7400,1248
3.7420,1376
3.7440,1024
3.7460,1536
3.7480,1888
3.7500,1616
3.7520,1232
3.7540,1520
3.7560,896
3.7580,1456
3.7600,6193
3.7620,4353
3.7640,1968
3.7660,1536
3.7680,1568
3.7700,1360
3.7720,992
3.7740,1184
3.7760,1328
3.7780,1856
3.7800,1600
3.7820,1440
3.7840,944
3.7860,1568
3.7880,2176
3.7900,960
3.7920,1200
3.7940,1888
3.7960,1264
3.7980,2864
3.8000,1040
3.8020,848
3.8040,960
3.8060,1760
3.8080,1616
3.8100,1184
3.8120,1264
3.8140,1744
3.8160,1536
3.8180,2464
3.8200,1488
3.8220,1120
3.8240,1104
3.8260,1472
3.8280,1248
3.8300,1584
3.8320,1040
3.8340,1168
3.8360,1600
3.8380,1488
3.8400,1424
3.8420,1328
3.8440,2128
3.8460,1360
3.8480,1504
3.8500,912
3.8520,1632
3.8540,1680
3.8560,1168
3.8580,1280
3.8600,1072
3.8620,1056
3.8640,1600
3.8660,1520
3.8680,1312
3.8700,1040
3.8720,1152
3.8740,1056
3.8760,1760
3.8780,1696
3.8800,5457
3.8820,2016
3.8840,928
3.8860,1248
3.8880,1152
3.8900,1072
3.8920,1664
3.8940,2608
3.8960,1504
3.8980,1552
3.9000,1552
3.9020,1312
3.9040,1328
3.9060,1632
3.9080,976
3.9100,1664
3.9120,1712
3.9140,1536
3.9160,2336
3.9180,1536
3.9200,928
3.9220,1552
3.9240,1248
3.9260,1200
3.9280,992
3.9300,1312
3.9320,1856
3.9340,1248
3.9360,2016
3.9380,1296
3.9400,1440
3.9420,1408
3.9440,2080
3.9460,1312
3.9480,1936
3.9500,1104
3.9520,1584
3.9540,1568
3.9560,1520
3.9580,1392
3.9600,1296
3.9620,1072
3.9640,1360
3.9660,2720
3.9680,1264
3.9700,1248
3.9720,1296
3.9740,1360
3.9760,1376
3.9780,1040
3.9800,1872
3.9820,5345
3.9840,1280
3.9860,2320
3.9880,1040
3.9900,1504
3.9920,2112
3.9940,1440
3.9960,1440
3.9980,2128
4.0000,1152
4.0020,1376
4.0040,976
4.0060,1424
4.0080,1216
4.0100,1072
4.0120,2128
4.0140,1408
4.0160,1152
4.0180,1808
4.0200,800
4.0220,1856
4.0240,2336
4.0260,1296
4.0280,1760
4.0300,2016
4.0320,1200
4.0340,1616
4.0360,912
4.0380,1488
4.0400,1072
4.0420,1680
4.0440,1344
4.0460,1584
4.0480,1344
4.0500,864
4.0520,976
4.0540,1120
4.0560,1200
4.0580,848
4.0600,2096
4.0620,1056
4.0640,1376
4.0660,1632
4.0680,1328
4.0700,1168
4.0720,1632
4.0740,1184
4.0760,1504
4.0780,1040
4.0800,1248
4.0820,1328
4.0840,2512
4.0860,1952
4.0880,1328
4.0900,1968
4.0920,1488
4.0940,8802
4.0960,8145
4.0980,1568
4.1000,1808
4.1020,1408
4.1040,1408
4.1060,2304
4.1080,944
4.1100,1136
4.1120,1376
4.1140,1424
4.1160,976
4.1180,1184
4.1200,1168
4.1220,1200
4.1240,1024
4.1260,1216
4.1280,1184
4.1300,1152
4.1320,1376
4.1340,1392
4.1360,1504
4.1380,1408
4.1400,1472
4.1420,1168
4.1440,1408
4.1460,1872
4.1480,2016
4.1500,2432
4.1520,1088
4.1540,3168
4.1560,5201
4.1580,2064
4.1600,1152
4.1620,1232
4.1640,1376
4.1660,864
4.1680,1056
4.1700,944
4.1720,1456
4.1740,1312
4.1760,1952
4.1780,960
4.1800,1152
4.1820,1584
4.1840,1360
4.1860,1616
4.1880,944
4.1900,1568
4.1920,992
4.1940,1344
4.1960,1424
4.1980,1808
4.2000,3088
4.2020,1600
4.2040,1360
4.2060,1216
4.2080,1440
4.2100,1472
4.2120,1632
4.2140,1184
4.2160,976
4.2180,928
4.2200,1152
4.2220,1408
4.2240,928
4.2260,1520
4.2280,1360
4.2300,1472
4.2320,688
4.2340,1600
4.2360,1984
4.2380,1984
4.2400,1296
4.2420,1840
4.2440,1280
4.2460,1952
4.2480,1360
4.2500,1408
4.2520,960
4.2540,2528
4.2560,1584
4.2580,1424
4.2600,960
4.2620,1392
4.2640,1088
4.2660,1200
4.2680,1088
4.2700,1328
4.2720,1280
4.2740,2016
4.2760,1792
4.2780,928
4.2800,1472
4.2820,1952
4.2840,6465
4.2860,5441
4.2880,1184
4.2900,1088
4.2920,992
4.2940,1440
4.2960,2096
4.2980,1248
4.3000,1088
4.3020,1024
4.3040,1120
4.3060,896
4.3080,1040
4.3100,1376
4.3120,1216
4.3140,1504
4.3160,1184
4.3180,1184
4.3200,1472
4.3220,1568
4.3240,1840
4.3260,1760
4.3280,976
4.3300,1616
4.3320,1328
4.3340,960
4.3360,1216
4.3380,1168
4.3400,1168
4.3420,1152
4.3440,1616
4.3460,1392
4.3480,1696
4.3500,1600
4.3520,1024
4.3540,1088
4.3560,992
4.3580,1344
4.3600,1776
4.3620,1216
4.3640,1600
4.3660,1360
4.3680,1056
4.3700,848
4.3720,784
4.3740,1632
4.3760,1488
4.3780,1376
4.3800,1840
4.3820,1152
4.3840,1472
4.3860,5153
4.3880,3872
4.3900,3552
4.3920,1584
4.3940,1744
4.3960,1856
4.3980,1216
4.4000,1296
4.4020,1504
4.4040,1392
4.4060,1456
4.4080,1424
4.4100,1408
4.4120,1536
4.4140,1504
4.4160,1120
4.4180,1088
4.4200,1456
4.4220,944
4.4240,1552
4.4260,1232
4.4280,1040
4.4300,1072
4.4320,2144
4.4340,1056
4.4360,992
4.4380,1056
4.4400,912
4.4420,1280
4.4440,1312
4.4460,864
4.4480,1760
4.4500,1120
4.4520,1664
4.4540,1424
4.4560,1104
4.4580,2736
4.4600,1216
4.4620,1376
4.4640,1552
4.4660,1184
4.4680,1328
4.4700,1104
4.4720,1040
4.4740,1152
4.4760,1152
4.4780,1584
4.4800,1088
4.4820,1296
4.4840,9298
4.4860,3760
4.4880,1680
4.4900,1488
4.4920,1184
4.4940,1376
4.4960,1568
4.4980,1120
4.5000,1008
4.5020,1536
4.5040,1184
4.5060,1296
4.5080,1632
4.5100,992
4.5120,1328
4.5140,1520
4.5160,1408
4.5180,1456
4.5200,1568
4.5220,1728
4.5240,992
4.5260,1120
4.5280,1088
4.5300,2432
4.5320,1584
4.5340,1968
4.5360,2656
4.5380,1472
4.5400,1168
4.5420,992
4.5440,1088
4.5460,1200
4.5480,1568
4.5500,1408
4.5520,1184
4.5540,1872
4.5560,1200
4.5580,1744
4.5600,1088
4.5620,1232
4.5640,1168
4.5660,1184
4.5680,1440
4.5700,1216
4.5720,1152
4.5740,1680
4.5760,2896
4.5780,1552
4.5800,6833
4.5820,1408
4.5840,1312
4.5860,1472
4.5880,1200
4.5900,1088
4.5920,1072
4.5940,1504
4.5960,1536
4.5980,1376
4.6000,848
4.6020,1424
4.6040,1504
4.6060,768
4.6080,1936
4.6100,2576
4.6120,1440
4.6140,864
4.6160,928
4.6180,1248
4.6200,1344
4.6220,1152
4.6240,1312
4.6260,1520
4.6280,1840
4.6300,1024
4.6320,1440
4.6340,1440
4.6360,1760
4.6380,1088
4.6400,1680
4.6420,960
4.6440,2080
4.6460,3072
4.6480,1552
4.6500,1360
4.6520,1584
4.6540,1040
4.6560,1344
4.6580,1360
4.6600,1072
4.6620,1104
4.6640,1584
4.6660,1504
4.6680,3760
4.6700,5825
4.6720,1216
4.6740,1104
4.6760,1440
4.6780,1376
4.6800,1488
4.6820,1584
4.6840,976
4.6860,1088
4.6880,2096
4.6900,1632
4.6920,1440
4.6940,1024
4.6960,1920
4.6980,1104
4.7000,1056
4.7020,1168
4.7040,1248
4.7060,1280
4.7080,1280
4.7100,1312
4.7120,1328
4.7140,992
4.7160,1680
4.7180,1168
4.7200,1040
4.7220,1152
4.7240,1744
4.7260,2112
4.7280,960
4.7300,1424
4.7320,1232
4.7340,1632
4.7360,1552
4.7380,912
4.7400,1360
4.7420,1184
4.7440,1200
4.7460,1584
4.7480,1360
4.7500,1696
4.7520,1424
4.7540,1072
4.7560,1728
4.7580,1616
4.7600,1120
4.7620,1504
4.7640,1360
4.7660,1056
4.7680,1296
4.7700,1632
4.7720,1600
4.7740,2208
4.7760,1440
4.7780,2592
4.7800,1744
4.7820,960
4.7840,1328
4.7860,1728
4.7880,1072
4.7900,1536
4.7920,2256
4.7940,3376
4.7960,2768
4.7980,1072
4.8000,1184
4.8020,1584
4.8040,3728
4.8060,2176
4.8080,976
4.8100,1584
4.8120,1152
4.8140,1152
4.8160,1472
4.8180,1296
4.8200,1408
4.8220,2176
4.8240,1456
4.8260,1840
4.8280,1488
4.8300,1472
4.8320,1552
4.8340,1360
4.8360,1088
4.8380,1504
4.8400,2000
4.8420,1312
4.8440,3792
4.8460,3840
4.8480,2320
4.8500,1216
4.8520,2768
4.8540,1664
4.8560,1840
4.8580,1184
4.8600,1424
4.8620,1344
4.8640,1088
4.8660,1728
4.8680,1248
4.8700,1600
4.8720,2144
4.8740,1104
4.8760,2528
4.8780,1280
4.8800,1088
4.8820,1696
4.8840,2864
4.8860,2080
4.8880,1632
4.8900,1104
4.8920,1792
4.8940,1424
4.8960,4129
4.8980,2784
4.9000,1296
4.9020,1312
4.9040,1536
4.9060,1520
4.9080,1120
4.9100,1248
4.9120,1424
4.9140,1552
4.9160,1280
4.9180,720
4.9200,2448
4.9220,1200
4.9240,864
4.9260,1712
4.9280,1440
4.9300,1968
4.9320,1088
4.9340,1072
4.9360,1040
4.9380,2368
4.9400,1904
4.9420,864
4.9440,1056
4.9460,1024
4.9480,1792
4.9500,1200
4.9520,1440
4.9540,1744
4.9560,992
4.9580,1584
4.9600,1264
4.9620,1104
4.9640,1584
4.9660,1792
4.9680,1616
4.9700,1328
4.9720,1120
4.9740,1120
4.9760,1008
4.9780,1504
4.9800,2528
4.9820,1776
4.9840,1456
4.9860,1248
4.9880,1168
4.9900,1024
4.9920,1440
4.9940,1120
4.9960,3664
4.9980,4225
5.0000,2192
5.0020,1632
5.0040,1056
5.0060,1056
5.0080,1456
5.0100,1552
5.0120,1488
5.0140,976
5.0160,1280
5.0180,1072
5.0200,1360
5.0220,1376
5.0240,3152
5.0260,1344
5.0280,1264
5.0300,1456
5.0320,1344
5.0340,1056
5.0360,1376
5.0380,1072
5.0400,1216
5.0420,1232
5.0440,1200
5.0460,1136
5.0480,1472
5.0500,2048
5.0520,1248
5.0540,1744
5.0560,1232
5.0580,1328
5.0600,1232
5.0620,1152
5.0640,1712
5.0660,1904
5.0680,1104
5.0700,1232
5.0720,1056
5.0740,1088
5.0760,1168
5.0780,1264
5.0800,1328
5.0820,992
5.0840,1456
5.0860,1216
5.0880,1632
5.0900,976
5.0920,1296
5.0940,1184
5.0960,1248
5.0980,1680
5.1000,1088
5.1020,1840
5.1040,6097
5.1060,6913
5.1080,1024
5.1100,1344
5.1120,1536
5.1140,1376
5.1160,1504
5.1180,4545
5.1200,2912
5.1220,1600
5.1240,1248
5.1260,1152
5.1280,1472
5.1300,1248
5.1320,1056
5.1340,1616
5.1360,1424
5.1380,1648
5.1400,1392
5.1420,1456
5.1440,1056
5.1460,1632
5.1480,1200
5.1500,1872
5.1520,1456
5.1540,1056
5.1560,1536
5.1580,1968
5.1600,1472
5.1620,864
5.1640,1408
5.1660,1424
5.1680,832
5.1700,1232
5.1720,1328
5.1740,1360
5.1760,1024
5.1780,1072
5.1800,1440
5.1820,1584
5.1840,1456
5.1860,1040
5.1880,1120
5.1900,1056
5.1920,1680
5.1940,1376
5.1960,1168
5.1980,1200
5.2000,1520
5.2020,1040
5.2040,1456
5.2060,896
5.2080,1552
5.2100,1136
5.2120,3856
5.2140,9010
5.2160,3392
5.2180,4529
5.2200,1104
5.2220,944
5.2240,1616
5.2260,1232
5.2280,2784
5.2300,2576
5.2320,1600
5.2340,1040
5.2360,1056
5.2380,944
5.2400,1344
5.2420,1328
5.2440,1248
5.2460,1360
5.2480,1408
5.2500,1216
5.2520,1232
5.2540,1920
5.2560,1616
5.2580,1168
5.2600,1440
5.2620,1408
5.2640,1120
5.2660,1472
5.2680,1568
5.2700,1424
5.2720,1744
5.2740,1088
5.2760,1168
5.2780,1584
5.2800,2336
5.2820,1808
5.2840,3104
5.2860,2784
5.2880,1056
5.2900,1232
5.2920,960
5.2940,1024
5.2960,1728
5.2980,1472
5.3000,1120
5.3020,1248
5.3040,1104
5.3060,1424
5.3080,1456
5.3100,1328
5.3120,4561
5.3140,1712
5.3160,1360
5.3180,1040
5.3200,1296
5.3220,1424
5.3240,1312
5.3260,1120
5.3280,1152
5.3300,1552
5.3320,3120
5.3340,2464
5.3360,1472
5.3380,1168
5.3400,1696
5.3420,1072
5.3440,1120
5.3460,1456
5.3480,1376
5.3500,1232
5.3520,848
5.3540,1184
5.3560,1248
5.3580,1440
5.3600,1264
5.3620,1456
5.3640,896
5.3660,928
5.3680,1232
5.3700,1184
5.3720,2192
5.3740,1792
5.3760,1552
5.3780,1792
5.3800,1216
5.3820,1504
5.3840,1360
5.3860,1440
5.3880,1056
5.3900,1424
5.3920,1488
5.3940,1680
5.3960,1280
5.3980,1792
5.4000,1024
5.4020,1344
5.4040,1568
5.4060,1408
5.4080,1696
5.4100,1376
5.4120,1568
5.4140,1200
5.4160,1184
5.4180,1088
5.4200,1008
5.4220,1616
5.4240,1056
5.4260,1632
5.4280,1616
5.4300,2176
5.4320,1488
5.4340,3184
5.4360,3232
5.4380,2240
5.4400,1600
5.4420,1248
5.4440,1488
5.4460,1232
5.4480,3744
5.4500,1344
5.4520,1136
5.4540,1152
5.4560,1280
5.4580,1120
5.4600,1264
5.4620,2368
5.4640,1424
5.4660,1296
5.4680,1568
5.4700,1440
5.4720,992
5.4740,1152
5.4760,1056
5.4780,1104
5.4800,2640
5.4820,1968
5.4840,1104
5.4860,2000
5.4880,1504
5.4900,1872
5.4920,1584
5.4940,1680
5.4960,1984
5.4980,1152
5.5000,1120
5.5020,1120
5.5040,1376
5.5060,1472
5.5080,1216
5.5100,1248
5.5120,1232
5.5140,1296
5.5160,1120
5.5180,1152
5.5200,1680
5.5220,2048
5.5240,1328
5.5260,1088
5.5280,1360
5.5300,960
5.5320,1520
5.5340,1216
5.5360,1424
5.5380,1264
5.5400,992
5.5420,1232
5.5440,1232
5.5460,1472
5.5480,1632
5.5500,1056
5.5520,1344
5.5540,1072
5.5560,1376
5.5580,1440
5.5600,1040
5.5620,3552
5.5640,2672
5.5660,1504
5.5680,1536
5.5700,1200
5.5720,816
5.5740,1472
5.5760,1344
5.5780,1360
5.5800,1344
5.5820,1200
5.5840,1088
5.5860,1376
5.5880,1152
5.5900,1152
5.5920,1072
5.5940,1584
5.5960,1312
5.5980,1088
5.6000,1152
5.6020,1280
5.6040,1872
5.6060,1280
5.6080,1120
5.6100,1456
5.6120,2048
5.6140,960
5.6160,1200
5.6180,1104
5.6200,1168
5.6220,1584
5.6240,1312
5.6260,1152
5.6280,1664
5.6300,1040
5.6320,1504
5.6340,1408
5.6360,1248
5.6380,1232
5.6400,1424
5.6420,1520
5.6440,992
5.6460,1424
5.6480,1360
5.6500,1408
5.6520,1968
5.6540,1424
5.6560,4817
5.6580,1680
5.6600,2800
5.6620,2368
5.6640,1040
5.6660,1008
5.6680,1680
5.6700,1280
5.6720,1552
5.6740,1104
5.6760,1632
5.6780,1632
5.6800,1504
5.6820,1088
5.6840,1184
5.6860,1488
5.6880,1568
5.6900,1600
5.6920,1280
5.6940,1344
5.6960,1712
5.6980,1312
5.7000,1536
5.7020,2880
5.7040,1360
5.7060,928
5.7080,1760
5.7100,1584
5.7120,1584
5.7140,1680
5.7160,1408
5.7180,1376
5.7200,1088
5.7220,1088
5.7240,1552
5.7260,1424
5.7280,864
5.7300,1792
5.7320,1184
5.7340,1584
5.7360,1616
5.7380,1760
5.7400,1216
5.7420,1584
5.7440,1232
5.7460,1408
5.7480,8177
5.7500,7633
5.7520,1424
5.7540,1744
5.7560,1488
5.7580,1616
5.7600,1168
5.7620,1632
5.7640,1168
5.7660,1184
5.7680,1104
5.7700,1552
5.7720,1072
5.7740,1856
5.7760,1216
5.7780,1712
5.7800,1664
5.7820,2368
5.7840,2176
5.7860,1328
5.7880,1440
5.7900,1712
5.7920,1008
5.7940,1472
5.7960,1216
5.7980,1504
5.8000,1504
5.8020,1376
5.8040,1504
5.8060,1472
5.8080,1328
5.8100,1152
5.8120,2144
5.8140,1584
5.8160,1744
5.8180,1488
5.8200,1744
5.8220,2224
5.8240,2384
5.8260,1536
5.8280,2336
5.8300,1312
5.8320,2080
5.8340,1760
5.8360,1296
5.8380,1440
5.8400,1280
5.8420,1984
5.8440,1552
5.8460,3888
5.8480,1840
5.8500,1584
5.8520,1808
5.8540,1296
5.8560,1472
5.8580,1312
5.8600,2720
5.8620,1120
5.8640,1360
5.8660,2192
5.8680,1840
5.8700,1536
5.8720,976
5.8740,1456
5.8760,1456
5.8780,3376
5.8800,1200
5.8820,1200
5.8840,1056
5.8860,1552
5.8880,1152
5.8900,1472
5.8920,1600
5.8940,1056
5.8960,1360
5.8980,1552
5.9000,1408
5.9020,1232
5.9040,2144
5.9060,1552
5.9080,976
5.9100,1728
5.9120,1872
5.9140,1712
5.9160,1520
5.9180,2368
5.9200,2304
5.9220,2624
5.9240,1328
5.9260,1664
5.9280,1472
5.9300,1712
5.9320,1584
5.9340,1712
5.9360,1200
5.9380,1616
5.9400,1296
5.9420,1008
5.9440,1152
5.9460,3392
5.9480,6833
5.9500,4000
5.9520,1920
5.9540,1440
5.9560,1712
5.9580,1280
5.9600,1264
5.9620,1552
5.9640,1600
5.9660,1600
5.9680,1424
5.9700,1408
5.9720,1616
5.9740,2192
5.9760,1568
5.9780,1552
5.9800,1392
5.9820,1536
5.9840,1440
5.9860,1152
5.9880,2144
5.9900,1024
5.9920,1536
5.9940,1488
5.9960,1680
5.9980,1600
6.0000,1232
6.0020,1120
6.0040,3360
6.0060,1728
6.0080,944
6.0100,1680
6.0120,1408
6.0140,2512
6.0160,2128
6.0180,1376
6.0200,1056
6.0220,1824
6.0240,1504
6.0260,1344
6.0280,1856
6.0300,1520
6.0320,1056
6.0340,1456
6.0360,1488
6.0380,1968
6.0400,1584
6.0420,1536
6.0440,1408
6.0460,5041
6.0480,8898
6.0500,2112
6.0520,1680
6.0540,1456
6.0560,2176
6.0580,1248
6.0600,1152
6.0620,1360
6.0640,1488
6.0660,1472
6.0680,1184
6.0700,2688
6.0720,1536
6.0740,1872
6.0760,1312
6.0780,2080
6.0800,1328
6.0820,1168
6.0840,1760
6.0860,1632
6.0880,1072
6.0900,2240
6.0920,1088
6.0940,1696
6.0960,3072
6.0980,1104
6.1000,1376
6.1020,1344
6.1040,1600
6.1060,1536
6.1080,1872
6.1100,1664
6.1120,1568
6.1140,2224
6.1160,1312
6.1180,1168
6.1200,1056
6.1220,8802
6.1240,864
6.1260,1680
6.1280,1584
6.1300,8177
6.1320,2624
6.1340,1360
6.1360,2880
6.1380,1376
6.1400,1600
6.1420,1680
6.1440,2112
6.1460,1536
6.1480,1568
6.1500,4177
6.1520,1072
6.1540,1616
6.1560,4016
6.1580,1232
6.1600,1216
6.1620,1600
6.1640,1008
6.1660,1184
6.1680,6561
6.1700,4849
6.1720,5633
6.1740,5777
6.1760,3456
6.1780,2000
6.1800,1344
6.1820,1168
6.1840,1616
6.1860,1680
6.1880,4817
6.1900,1920
6.1920,1792
6.1940,3360
6.1960,4145
6.1980,1360
6.2000,1344
6.2020,960
6.2040,1552
6.2060,2736
6.2080,3760
6.2100,2512
6.2120,1840
6.2140,1008
6.2160,2864
6.2180,2736
6.2200,1632
6.2220,1600
6.2240,1104
6.2260,9938
6.2280,1440
6.2300,1216
6.2320,2624
6.2340,1712
6.2360,3488
6.2380,1344
6.2400,1152
6.2420,1488
6.2440,2272
6.2460,3152
6.2480,3904
6.2500,1568
6.2520,2320
6.2540,1328
6.2560,4945
6.2580,4561
6.2600,1408
6.2620,4289
6.2640,2160
6.2660,2448
6.2680,1344
6.2700,2688
6.2720,8210
6.2740,3120
6.2760,4705
6.2780,3984
6.2800,1792
6.2820,1424
6.2840,1248
6.2860,5441
6.2880,1472
6.2900,14243
6.2920,1216
6.2940,3216
6.2960,2384
6.2980,1760
6.3000,3088
6.3020,1696
6.3040,6609
6.3060,1712
6.3080,1584
6.3100,3200
6.3120,2400
6.3140,6705
6.3160,1728
6.3180,5521
6.3200,2560
6.3220,7329
6.3240,1520
6.3260,1856
6.3280,1904
6.3300,4016
6.3320,4433
6.3340,2624
6.3360,1760
6.3380,7057
6.3400,12226
6.3420,2576
6.3440,4641
6.3460,9474
6.3480,3936
6.3500,3488
6.3520,2304
6.3540,15059
6.3560,4000
6.3580,4289
6.3600,9154
6.3620,9458
6.3640,2384
6.3660,3280
6.3680,8786
6.3700,1648
6.3720,2240
6.3740,2208
6.3760,8177
6.3780,1392
6.3800,1904
6.3820,1408
6.3840,2064
6.3860,6081
6.3880,5057
6.3900,1664
6.3920,3008
6.3940,1280
6.3960,15251
6.3980,7121
6.4000,14435
6.4020,2944
6.4040,2272
6.4060,2432
6.4080,3472
6.4100,1328
6.4120,2720
6.4140,2176
6.4160,1504
6.4180,3520
6.4200,2480
6.4220,1856
6.4240,1632
6.4260,4145
6.4280,7425
6.4300,4097
6.4320,7185
6.4340,1584
6.4360,1824
6.4380,6609
6.4400,9250
6.4420,4465
6.4440,15523
6.4460,6289
6.4480,1936
6.4500,2000
6.4520,1376
6.4540,3504
6.4560,3280
6.4580,6641
6.4600,4225
6.4620,7345
6.4640,6849
6.4660,1968
6.4680,2592
6.4700,2688
6.4720,5953
6.4740,3024
6.4760,7729
6.4780,5217
6.4800,4048
6.4820,6225
6.4840,2544
6.4860,9554
6.4880,6369
6.4900,7441
6.4920,2192
6.4940,1712
6.4960,3328
6.4980,7169
6.5000,2976
6.5020,2848
6.5040,6977
6.5060,2528
6.5080,2384
6.5100,10626
6.5120,12339
6.5140,4977
6.5160,3840
6.5180,1472
6.5200,2832
6.5220,4961
6.5240,9554
6.5260,4000
6.5280,2976
6.5300,7825
6.5320,2496
6.5340,4657
6.5360,7377
6.5380,4177
6.5400,2752
6.5420,9714
6.5440,17508
6.5460,2896
6.5480,24726
6.5500,1808
6.5520,3344
6.5540,8546
6.5560,2720
6.5580,3664
6.5600,1792
6.5620,1728
6.5640,3792
6.5660,1952
6.5680,9346
6.5700,6929
6.5720,4305
6.5740,5409
6.5760,3008
6.5780,8482
6.5800,7937
6.5820,21701
6.5840,28358
6.5860,23077
6.5880,17172
6.5900,17812
6.5920,12387
6.5940,34200
6.5960,8145
6.5980,2464
6.6000,2592
6.6020,16772
6.6040,16820
6.6060,22181
6.6080,12419
6.6100,1568
6.6120,3488
6.6140,15811
6.6160,11826
6.6180,8930
6.6200,12867
6.6220,2880
6.6240,10146
6.6260,6817
6.6280,12050
6.6300,14147
6.6320,10322
6.6340,1744
6.6360,14227
6.6380,3424
6.6400,7761
6.6420,4193
6.6440,18164
6.6460,1360
6.6480,17924
6.6500,6977
6.6520,6705
6.6540,15779
6.6560,1552
6.6580,6833
6.6600,11570
6.6620,1632
6.6640,6145
6.6660,1456
6.6680,14291
6.6700,4064
6.6720,19156
6.6740,4241
6.6760,16355
6.6780,2560
6.6800,3456
6.6820,6369
6.6840,3040
6.6860,11442
6.6880,3024
6.6900,3520
6.6920,15363
6.6940,2304
6.6960,4000
6.6980,15635
6.7000,6737
6.7020,8177
6.7040,4177
6.7060,25270
6.7080,3408
6.7100,10306
6.7120,5793
6.7140,2848
6.7160,5601
6.7180,7089
6.7200,4929
6.7220,4801
6.7240,1488
6.7260,28855
6.7280,9810
6.7300,4561
6.7320,11154
6.7340,3680
6.7360,11970
6.7380,6641
6.7400,33208
6.7420,12899
6.7440,11442
6.7460,20308
6.7480,4737
6.7500,10930
6.7520,18932
6.7540,2256
6.7560,38313
6.7580,7009
6.7600,4161
6.7620,29111
6.7640,1792
6.7660,5409
6.7680,2128
6.7700,4401
6.7720,4369
6.7740,2000
6.7760,11282
6.7780,23941
6.7800,7729
6.7820,3024
6.7840,2608
6.7860,22069
6.7880,10242
6.7900,22277
6.7920,5089
6.7940,5505
6.7960,1920
6.7980,3152
6.8000,24902
6.8020,28246
6.8040,2480
6.8060,1744
6.8080,30599
6.8100,16323
6.8120,2752
6.8140,3472
6.8160,17588
6.8180,10194
6.8200,18212
6.8220,2464
6.8240,1968
6.8260,3504
6.8280,12547
6.8300,14307
6.8320,1696
6.8340,1712
6.8360,1712
6.8380,6849
6.8400,7633
6.8420,13155
6.8440,11986
6.8460,1936
6.8480,5521
6.8500,39545
6.8520,12194
6.8540,2992
6.8560,2016
6.8580,9490
6.8600,6817
6.8620,1536
6.8640,4513
6.8660,2944
6.8680,1552
6.8700,1680
6.8720,7841
6.8740,7377
6.8760,1808
6.8780,8786
6.8800,10722
6.8820,8418
6.8840,11330
6.8860,8354
6.8880,5601
6.8900,21061
6.8920,3408
6.8940,2640
6.8960,2656
6.8980,2640
6.9000,17700
6.9020,12307
6.9040,11362
6.9060,20645
6.9080,8722
6.9100,8001
6.9120,2112
6.9140,2144
6.9160,5441
6.9180,8242
6.9200,10770
6.9220,1952
6.9240,2272
6.9260,1472
6.9280,1712
6.9300,9986
6.9320,4401
6.9340,2688
6.9360,20965
6.9380,14739
6.9400,1856
6.9420,23477
6.9440,4609
6.9460,5185
6.9480,28150
6.9500,1744
6.9520,17492
6.9540,11314
6.9560,8017
6.9580,2016
6.9600,9442
6.9620,2608
6.9640,3520
6.9660,6353
6.9680,11922
6.9700,1744
6.9720,8177
6.9740,3840
6.9760,22293
6.9780,1376
6.9800,5009
6.9820,4545
6.9840,8354
6.9860,1600
6.9880,6673
6.9900,39209
6.9920,10146
6.9940,1712
6.9960,7777
6.9980,1600
7.0000,4433
7.0020,5889
7.0040,2800
7.0060,26006
7.0080,2208
7.0100,3552
7.0120,7809
7.0140,41642
7.0160,21781
7.0180,6353
7.0200,1744
7.0220,4737
7.0240,2064
7.0260,13363
7.0280,11650
7.0300,16532
7.0320,1392
7.0340,8738
7.0360,11890
7.0380,5969
7.0400,16548
7.0420,5873
7.0440,29911
7.0460,4945
7.0480,13747
7.0500,10370
7.0520,22213
7.0540,7521
7.0560,15747
7.0580,8930
7.0600,22341
7.0620,2080
7.0640,3264
7.0660,2464
7.0680,24565
7.0700,9218
7.0720,30551
7.0740,14803
7.0760,8978
7.0780,2656
7.0800,5377
7.0820,8177
7.0840,2704
7.0860,7809
7.0880,2176
7.0900,9490
7.0920,20949
7.0940,3552
7.0960,4353
7.0980,11826
7.1000,7633
7.1020,7553
7.1040,1424
7.1060,22309
7.1080,5601
7.1100,5601
7.1120,1552
7.1140,9426
7.1160,1328
7.1180,5649
7.1200,3984
7.1220,24533
7.1240,21141
7.1260,4577
7.1280,23333
7.1300,19716
7.1320,2272
7.1340,1744
7.1360,3328
7.1380,5697
7.1400,21189
7.1420,30455
7.1440,4753
7.1460,3872
7.1480,18612
7.1500,3440
7.1520,10194
7.1540,4897
7.1560,17748
7.1580,1728
7.1600,30359
7.1620,20100
7.1640,9842
7.1660,2384
7.1680,2640
7.1700,1552
7.1720,3248
7.1740,9954
7.1760,13443
7.1780,7345
7.1800,15891
7.1820,22965
7.1840,8290
7.1860,2128
7.1880,13747
7.1900,6337
7.1920,12883
7.1940,2976
7.1960,6433
7.1980,2960
7.2000,3408
7.2020,4609
7.2040,36120
7.2060,1744
7.2080,7985
7.2100,5553
7.2120,15715
7.2140,34632
7.2160,7153
7.2180,5073
7.2200,1760
7.2220,4032
7.2240,5313
7.2260,13779
7.2280,17572
7.2300,5985
7.2320,6929
7.2340,1696
7.2360,11762
7.2380,16772
7.2400,44986
7.2420,4273
7.2440,5185
7.2460,4497
7.2480,5105
7.2500,19028
7.2520,11698
7.2540,1712
7.2560,6977
7.2580,9650
7.2600,24197
7.2620,2448
7.2640,12146
7.2660,4801
7.2680,17108
7.2700,21365
7.2720,4625
7.2740,1936
7.2760,16772
7.2780,5457
7.2800,26502
7.2820,16291
7.2840,3616
7.2860,1424
7.2880,1920
7.2900,15523
7.2920,3008
7.2940,7521
7.2960,8610
7.2980,12194
7.3000,25366
7.3020,28214
7.3040,1488
7.3060,1328
7.3080,4865
7.3100,19236
7.3120,6225
7.3140,8177
7.3160,4385
7.3180,1968
7.3200,3824
7.3220,17700
7.3240,10690
7.3260,15619
7.3280,8642
7.3300,8626
7.3320,16980
7.3340,3376
7.3360,10594
7.3380,3680
7.3400,5745
7.3420,2192
7.3440,6145
7.3460,11730
7.3480,20404
7.3500,22949
7.3520,4881
7.3540,1760
7.3560,7089
7.3580,23045
7.3600,15251
7.3620,3136
7.3640,18580
7.3660,1728
7.3680,3376
7.3700,9746
7.3720,32776
7.3740,7041
7.3760,11554
7.3780,5601
7.3800,1840
7.3820,4241
7.3840,2976
7.3860,22453
7.3880,1504
7.3900,15843
7.3920,3840
7.3940,9858
7.3960,10306
7.3980,5857
7.4000,18308
7.4020,9026
7.4040,1488
7.4060,2992
7.4080,3040
7.4100,6257
7.4120,5185
7.4140,4273
7.4160,13747
7.4180,5073
7.4200,12050
7.4220,1856
7.4240,6609
7.4260,14819
7.4280,15699
7.4300,25430
7.4320,19684
7.4340,28502
7.4360,22805
7.4380,29159
7.4400,1696
7.4420,18772
7.4440,9170
7.4460,3888
7.4480,7761
7.4500,17764
7.4520,4161
7.4540,12130
7.4560,5761
7.4580,10194
7.4600,28759
7.4620,4561
7.4640,1616
7.4660,9378
7.4680,5249
7.4700,2000
7.4720,1344
7.4740,9618
7.4760,2224
7.4780,2896
7.4800,3296
7.4820,1744
7.4840,8978
7.4860,1760
7.4880,2128
7.4900,1888
7.4920,4641
7.4940,30119
7.4960,8946
7.4980,1664
7.5000,3200
7.5020,7569
7.5040,2992
7.5060,24565
7.5080,7457
7.5100,18612
7.5120,9762
7.5140,23461
7.5160,4257
7.5180,1760
7.5200,6049
7.5220,2912
7.5240,3104
7.5260,13651
7.5280,23205
7.5300,6113
7.5320,3008
7.5340,5137
7.5360,1920
7.5380,11618
7.5400,8594
7.5420,14851
7.5440,11186
7.5460,3104
7.5480,2064
7.5500,6321
7.5520,7041
7.5540,12194
7.5560,2976
7.5580,22933
7.5600,14419
7.5620,2432
7.5640,1344
7.5660,6321
7.5680,9250
7.5700,5073
7.5720,17188
7.5740,8930
7.5760,8674
7.5780,16548
7.5800,1328
7.5820,10834
7.5840,14291
7.5860,2944
7.5880,5473
7.5900,17220
7.5920,17492
7.5940,1792
7.5960,8722
7.5980,1152
7.6000,8770
7.6020,10706
7.6040,4961
7.6060,15059
7.6080,5073
7.6100,5345
7.6120,18740
7.6140,11122
7.6160,7857
7.6180,8786
7.6200,5457
7.6220,2576
7.6240,8177
7.6260,2576
7.6280,5313
7.6300,4641
7.6320,2736
7.6340,2528
7.6360,12579
7.6380,16179
7.6400,1408
7.6420,7265
7.6440,3296
7.6460,13235
7.6480,2112
7.6500,8226
7.6520,3792
7.6540,10306
7.6560,8177
7.6580,11890
7.6600,12931
7.6620,2048
7.6640,1296
7.6660,1472
7.6680,4241
7.6700,14115
7.6720,7857
7.6740,19652
7.6760,1616
7.6780,9906
7.6800,2400
7.6820,12002
7.6840,1376
7.6860,12130
7.6880,9138
7.6900,7057
7.6920,1552
7.6940,10146
7.6960,20869
7.6980,23141
7.7000,17108
7.7020,2304
7.7040,1072
7.7060,7265
7.7080,13123
7.7100,15123
7.7120,19076
7.7140,1888
7.7160,13395
7.7180,9586
7.7200,5633
7.7220,1792
7.7240,9506
7.7260,2192
7.7280,12226
7.7300,15571
7.7320,9826
7.7340,2976
7.7360,14355
7.7380,14611
7.7400,6545
7.7420,6961
7.7440,6625
7.7460,13139
7.7480,4689
7.7500,12883
7.7520,15811
7.7540,6353
7.7560,4529
7.7580,4129
7.7600,9474
7.7620,8290
7.7640,18612
7.7660,3584
7.7680,3808
7.7700,13395
7.7720,2352
7.7740,8081
7.7760,9778
7.7780,7617
7.7800,4321
7.7820,5569
7.7840,3376
7.7860,1744
7.7880,3088
7.7900,15011
7.7920,5921
7.7940,10258
7.7960,1776
7.7980,3520
7.8000,3872
7.8020,7425
7.8040,2112
7.8060,6497
7.8080,9026
7.8100,11522
7.8120,3888
7.8140,8610
7.8160,4016
7.8180,10370
7.8200,3568
7.8220,8514
7.8240,2000
7.8260,6225
7.8280,11186
7.8300,11314
7.8320,11266
7.8340,18628
7.8360,14227
7.8380,9250
7.8400,17380
7.8420,19268
7.8440,1872
7.8460,17252
7.8480,13731
7.8500,8802
7.8520,1616
7.8540,4177
7.8560,7937
7.8580,5953
7.8600,24085
7.8620,3808
7.8640,13267
7.8660,15411
7.8680,23205
7.8700,1264
7.8720,1728
7.8740,1808
7.8760,1872
7.8780,2192
7.8800,13075
7.8820,9234
7.8840,18052
7.8860,15155
7.8880,3120
7.8900,14211
7.8920,22021
7.8940,9282
7.8960,3024
7.8980,1952
7.9000,16676
7.9020,8177
7.9040,21989
7.9060,3360
7.9080,3088
7.9100,15171
7.9120,14739
7.9140,7889
7.9160,1856
7.9180,1712
7.9200,13651
7.9220,1488
7.9240,12563
7.9260,2432
7.9280,5841
7.9300,1696
7.9320,1408
7.9340,4929
7.9360,2688
7.9380,1488
7.9400,16820
7.9420,10802
7.9440,1680
7.9460,2224
7.9480,2240
7.9500,3200
7.9520,1712
7.9540,7953
7.9560,3680
7.9580,5345
7.9600,3456
7.9620,8978
7.9640,3552
7.9660,20549
7.9680,1424
7.9700,3776
7.9720,5297
7.9740,4369
7.9760,3472
7.9780,8834
7.9800,7457
7.9820,1552
7.9840,4097
7.9860,9554
7.9880,1504
7.9900,1248
7.9920,4641
7.9940,5521
7.9960,17380
7.9980,8370
8.0000,9474
8.0020,26470
8.0040,5057
8.0060,6145
8.0080,18356
8.0100,11970
8.0120,2272
8.0140,23957
8.0160,32615
8.0180,14067
8.0200,27974
8.0220,6609
8.0240,6625
8.0260,17796
8.0280,8177
8.0300,2256
8.0320,12499
8.0340,22037
8.0360,4080
8.0380,7249
8.0400,5649
8.0420,1968
8.0440,1792
8.0460,6193
8.0480,12963
8.0500,7297
8.0520,1888
8.0540,7681
8.0560,14435
8.0580,3520
8.0600,8418
8.0620,3344
8.0640,5905
8.0660,2480
8.0680,10722
8.0700,6401
8.0720,8802
8.0740,1840
8.0760,3808
8.0780,1296
8.0800,12819
8.0820,3280
8.0840,2128
8.0860,18836
8.0880,4865
8.0900,1824
8.0920,2880
8.0940,14579
8.0960,5473
8.0980,22629
8.1000,17028
8.1020,4481
8.1040,3792
8.1060,9730
8.1080,2320
8.1100,7441
8.1120,14819
8.1140,4689
8.1160,13955
8.1180,9810
8.1200,23685
8.1220,6657
8.1240,2640
8.1260,13603
8.1280,16900
8.1300,7377
8.1320,2912
8.1340,1808
8.1360,3264
8.1380,22277
8.1400,6577
8.1420,1504
8.1440,8194
8.1460,2336
8.1480,5057
8.1500,6241
8.1520,4881
8.1540,9890
8.1560,3680
8.1580,9522
8.1600,17316
8.1620,5041
8.1640,1760
8.1660,22949
8.1680,1856
8.1700,2256
8.1720,17460
8.1740,17380
8.1760,12178
8.1780,24101
8.1800,14227
8.1820,3408
8.1840,6017
8.1860,7137
8.1880,16916
8.1900,20356
8.1920,24261
8.1940,20052
8.1960,8001
8.1980,2096
8.2000,2272
8.2020,10290
8.2040,512
8.2060,15651
8.2080,13059
8.2100,11234
8.2120,22133
8.2140,15907
8.2160,7521
8.2180,9442
8.2200,2944
8.2220,1408
8.2240,1376
8.2260,4513
8.2280,13827
8.2300,1728
8.2320,7649
8.2340,10514
8.2360,15267
8.2380,6145
8.2400,7665
8.2420,3088
8.2440,2336
8.2460,3024
8.2480,6065
8.2500,12451
8.2520,8177
8.2540,2080
8.2560,4225
8.2580,15603
8.2600,1216
8.2620,2304
8.2640,10114
8.2660,22613
8.2680,14051
8.2700,9298
8.2720,5505
8.2740,2848
8.2760,3360
8.2780,8626
8.2800,2432
8.2820,6561
8.2840,22117
8.2860,4449
8.2880,23877
8.2900,1616
8.2920,3248
8.2940,3440
8.2960,1440
8.2980,2800
8.3000,21157
8.3020,7121
8.3040,3568
8.3060,2256
8.3080,6833
8.3100,1760
8.3120,2304
8.3140,2560
8.3160,12915
8.3180,1232
8.3200,8177
8.3220,9314
8.3240,1584
8.3260,21189
8.3280,5649
8.3300,1584
8.3320,1744
8.3340,21253
8.3360,5137
8.3380,1584
8.3400,3728
8.3420,1888
8.3440,5697
8.3460,1424
8.3480,3232
8.3500,5265
8.3520,7249
8.3540,4561
8.3560,18084
8.3580,19748
8.3600,1312
8.3620,10162
8.3640,3792
8.3660,8161
8.3680,31655
8.3700,5121
8.3720,2832
8.3740,2352
8.3760,4305
8.3780,3296
8.3800,3376
8.3820,14611
8.3840,1824
8.3860,1584
8.3880,20773
8.3900,6081
8.3920,41962
8.3940,10386
8.3960,15299
8.3980,1920
8.4000,1664
8.4020,16003
8.4040,6369
8.4060,1968
8.4080,4865
8.4100,1840
8.4120,6897
8.4140,3584
8.4160,1840
8.4180,7953
8.4200,2272
8.4220,4897
8.4240,2256
8.4260,1808
8.4280,3456
8.4300,8370
8.4320,2080
8.4340,2896
8.4360,5633
8.4380,11906
8.4400,4337
8.4420,10242
8.4440,9122
8.4460,21653
8.4480,9874
8.4500,2704
8.4520,4241
8.4540,1760
8.4560,5521
8.4580,1312
8.4600,11698
8.4620,5393
8.4640,4305
8.4660,14899
8.4680,5121
8.4700,26150
8.4720,3472
8.4740,7073
8.4760,3216
8.4780,10834
8.4800,16804
8.4820,1888
8.4840,10514
8.4860,2144
8.4880,2176
8.4900,29319
8.4920,15379
8.4940,2080
8.4960,18868
8.4980,2560
8.5000,2992
8.5020,8706
8.5040,2384
8.5060,11026
8.5080,26342
8.5100,1712
8.5120,21189
8.5140,1728
8.5160,8210
8.5180,1472
8.5200,12835
8.5220,3552
8.5240,37177
8.5260,3072
8.5280,12034
8.5300,7585
8.5320,8354
8.5340,5841
8.5360,3136
8.5380,10882
8.5400,1664
8.5420,12082
8.5440,11698
8.5460,10114
8.5480,1344
8.5500,8177
8.5520,2048
8.5540,2304
8.5560,2256
8.5580,4705
8.5600,29319
8.5620,3552
8.5640,21269
8.5660,21861
8.5680,8834
8.5700,5569
8.5720,2112
8.5740,2384
8.5760,10402
8.5780,4241
8.5800,2192
8.5820,9634
8.5840,7841
8.5860,16227
8.5880,17508
8.5900,24614
8.5920,23637
8.5940,3488
8.5960,2016
8.5980,3776
8.6000,2880
8.6020,2976
8.6040,17604
8.6060,24758
8.6080,7889
8.6100,5521
8.6120,1792
8.6140,5121
8.6160,3968
8.6180,1520
8.6200,2144
8.6220,12258
8.6240,18516
8.6260,1472
8.6280,9426
8.6300,25638
8.6320,5121
8.6340,12419
8.6360,2080
8.6380,1632
8.6400,3872
8.6420,1584
8.6440,10114
8.6460,5953
8.6480,14243
8.6500,1728
8.6520,1936
8.6540,12771
8.6560,2608
8.6580,2160
8.6600,6177
8.6620,2096
8.6640,1872
8.6660,4705
8.6680,3168
8.6700,1824
8.6720,6577
8.6740,13027
8.6760,4945
8.6780,2400
8.6800,6081
8.6820,4657
8.6840,7857
8.6860,1936
8.6880,2112
8.6900,3680
8.6920,3024
8.6940,6657
8.6960,3936
8.6980,1344
8.7000,1056
8.7020,18164
8.7040,10210
8.7060,3984
8.7080,2864
8.7100,7745
8.7120,8017
8.7140,2496
8.7160,4609
8.7180,3616
8.7200,7681
8.7220,1776
8.7240,2048
8.7260,11730
8.7280,6401
8.7300,3024
8.7320,10898
8.7340,10130
8.7360,16420
8.7380,10370
8.7400,10258
8.7420,4289
8.7440,20965
8.7460,15315
8.7480,1920
8.7500,1344
8.7520,4305
8.7540,2720
8.7560,8258
8.7580,7073
8.7600,23189
8.7620,26774
8.7640,2592
8.7660,5185
8.7680,1792
8.7700,1856
8.7720,2112
8.7740,1920
8.7760,13587
8.7780,6065
8.7800,2176
8.7820,6609
8.7840,9730
8.7860,3536
8.7880,16596
8.7900,3616
8.7920,2944
8.7940,8546
8.7960,3392
8.7980,5425
8.8000,3136
8.8020,2592
8.8040,6097
8.8060,8338
8.8080,19956
8.8100,7121
8.8120,2432
8.8140,2048
8.8160,1696
8.8180,3104
8.8200,12210
8.8220,10530
8.8240,1936
8.8260,11490
8.8280,2896
8.8300,1664
8.8320,3648
8.8340,3312
8.8360,21301
8.8380,8882
8.8400,2704
8.8420,17444
8.8440,2432
8.8460,7697
8.8480,25878
8.8500,28550
8.8520,7857
8.8540,1776
8.8560,13155
8.8580,16964
8.8600,1744
8.8620,3040
8.8640,8290
8.8660,6753
8.8680,5425
8.8700,2624
8.8720,4097
8.8740,5937
8.8760,2400
8.8780,2880
8.8800,10194
8.8820,7361
8.8840,1968
8.8860,1792
8.8880,4561
8.8900,3568
8.8920,5409
8.8940,19620
8.8960,15955
8.8980,1888
8.9000,14243
8.9020,8498
8.9040,5521
8.9060,6081
8.9080,4785
8.9100,1584
8.9120,12323
8.9140,9250
8.9160,1488
8.9180,1184
8.9200,2080
8.9220,3888
8.9240,2992
8.9260,2304
8.9280,6465
8.9300,3136
8.9320,4785
8.9340,5281
8.9360,2176
8.9380,3792
8.9400,1104
8.9420,4097
8.9440,2512
8.9460,2896
8.9480,2816
8.9500,29863
8.9520,21557
8.9540,1424
8.9560,7825
8.9580,2304
8.9600,6369
8.9620,5713
8.9640,5841
8.9660,8754
8.9680,8177
8.9700,8081
8.9720,5185
8.9740,7041
8.9760,17060
8.9780,5761
8.9800,6369
8.9820,1744
8.9840,14499
8.9860,18148
8.9880,2592
8.9900,18436
8.9920,4641
8.9940,2496
8.9960,6929
8.9980,2256
9.0000,5633
9.0020,1552
9.0040,1856
9.0060,19028
9.0080,3712
9.0100,3840
9.0120,20308
9.0140,6321
9.0160,9858
9.0180,1328
9.0200,19508
9.0220,9250
9.0240,4545
9.0260,10850
9.0280,3488
9.0300,4032
9.0320,2592
9.0340,5857
9.0360,14387
9.0380,11666
9.0400,2688
9.0420,1792
9.0440,31719
9.0460,12675
9.0480,10162
9.0500,1680
9.0520,4545
9.0540,10898
9.0560,18004
9.0580,21381
9.0600,3696
9.0620,16339
9.0640,1488
9.0660,4000
9.0680,6753
9.0700,3296
9.0720,19476
9.0740,3088
9.0760,12643
9.0780,2304
9.0800,16548
9.0820,17380
9.0840,2432
9.0860,6017
9.0880,1696
9.0900,2320
9.0920,4193
9.0940,13027
9.0960,11474
9.0980,5521
9.1000,1520
9.1020,17940
9.1040,3184
9.1060,3584
9.1080,15827
9.1100,3408
9.1120,9026
9.1140,30391
9.1160,1584
9.1180,8466
9.1200,8177
9.1220,13539
9.1240,4865
9.1260,19044
9.1280,10146
9.1300,4993
9.1320,5809
9.1340,6177
9.1360,7553
9.1380,8033
9.1400,4385
9.1420,9538
9.1440,1344
9.1460,3584
9.1480,8177
9.1500,1664
9.1520,6177
9.1540,8290
9.1560,2784
9.1580,8978
9.1600,1328
9.1620,4032
9.1640,5761
9.1660,5841
9.1680,11330
9.1700,4593
9.1720,9890
9.1740,8177
9.1760,4961
9.1780,9522
9.1800,12210
9.1820,2000
9.1840,12851
9.1860,2704
9.1880,3584
9.1900,16083
9.1920,9522
9.1940,2976
9.1960,6337
9.1980,2688
9.2000,2096
9.2020,9170
9.2040,11810
9.2060,1760
9.2080,3472
9.2100,5665
9.2120,2000
9.2140,7009
9.2160,2704
9.2180,2192
9.2200,7105
9.2220,7281
9.2240,8177
9.2260,2352
9.2280,7713
9.2300,4193
9.2320,2208
9.2340,7073
9.2360,6545
9.2380,2048
9.2400,3360
9.2420,3376
9.2440,1344
9.2460,2960
9.2480,1792
9.2500,3920
9.2520,3712
9.2540,1632
9.2560,13187
9.2580,1712
9.2600,1152
9.2620,1312
9.2640,12162
9.2660,7441
9.2680,1248
9.2700,2000
9.2720,5553
9.2740,3808
9.2760,3088
9.2780,9938
9.2800,7457
9.2820,1728
9.2840,3888
9.2860,11026
9.2880,8017
9.2900,6433
9.2920,3568
9.2940,4177
9.2960,2608
9.2980,1984
9.3000,2816
9.3020,3120
9.3040,4225
9.3060,6593
9.3080,1360
9.3100,3728
9.3120,2496
9.3140,2576
9.3160,8194
9.3180,1536
9.3200,8274
9.3220,6145
9.3240,4113
9.3260,8962
9.3280,15827
9.3300,2320
9.3320,1344
9.3340,9122
9.3360,17156
9.3380,1552
9.3400,11842
9.3420,4753
9.3440,3728
9.3460,2128
9.3480,1344
9.3500,9730
9.3520,16948
9.3540,10802
9.3560,9906
9.3580,11618
9.3600,1856
9.3620,2496
9.3640,2192
9.3660,1696
9.3680,16147
9.3700,2896
9.3720,14051
9.3740,2496
9.3760,7713
9.3780,1856
9.3800,3664
9.3820,4801
9.3840,1984
9.3860,2704
9.3880,3520
9.3900,1792
9.3920,2688
9.3940,1680
9.3960,12563
9.3980,11234
9.4000,5953
9.4020,2832
9.4040,3552
9.4060,5649
9.4080,5649
9.4100,2144
9.4120,3360
9.4140,5729
9.4160,1456
9.4180,7105
9.4200,1808
9.4220,8594
9.4240,8402
9.4260,8770
9.4280,2160
9.4300,2000
9.4320,2864
9.4340,1200
9.4360,20869
9.4380,5393
9.4400,6705
9.4420,3008
9.4440,9106
9.4460,5793
9.4480,4689
9.4500,6289
9.4520,2832
9.4540,4385
9.4560,17940
9.4580,10290
9.4600,4625
9.4620,3920
9.4640,4000
9.4660,1520
9.4680,7505
9.4700,2448
9.4720,3072
9.4740,4481
9.4760,1744
9.4780,5185
9.4800,3136
9.4820,16067
9.4840,16964
9.4860,7121
9.4880,1792
9.4900,12627
9.4920,2208
9.4940,15667
9.4960,20949
9.4980,12050
9.5000,1936
9.5020,3728
9.5040,21109
9.5060,7473
9.5080,17204
9.5100,1744
9.5120,2256
9.5140,5649
9.5160,7681
9.5180,2480
9.5200,1760
9.5220,10690
9.5240,18404
9.5260,3120
9.5280,4080
9.5300,4080
9.5320,6177
9.5340,1424
9.5360,1216
9.5380,2512
9.5400,1232
9.5420,11922
9.5440,17252
9.5460,9346
9.5480,2096
9.5500,3728
9.5520,10210
9.5540,8017
9.5560,2624
9.5580,3120
9.5600,11234
9.5620,14931
9.5640,3392
9.5660,2496
9.5680,2064
9.5700,8226
9.5720,1312
9.5740,4785
9.5760,8274
9.5780,3936
9.5800,15267
9.5820,24037
9.5840,10466
9.5860,17556
9.5880,6657
9.5900,3936
9.5920,2128
9.5940,1568
9.5960,10930
9.5980,6193
9.6000,4801
9.6020,1952
9.6040,1120
9.6060,18500
9.6080,2720
9.6100,2128
9.6120,6673
9.6140,2144
9.6160,6417
9.6180,13363
9.6200,14803
9.6220,3424
9.6240,9282
9.6260,1888
9.6280,10466
9.6300,6417
9.6320,4032
9.6340,2432
9.6360,3968
9.6380,9682
9.6400,1920
9.6420,1760
9.6440,21349
9.6460,15155
9.6480,4097
9.6500,9378
9.6520,4385
9.6540,1920
9.6560,3136
9.6580,7393
9.6600,1824
9.6620,2384
9.6640,5249
9.6660,5937
9.6680,7761
9.6700,11298
9.6720,1216
9.6740,3680
9.6760,6321
9.6780,10370
9.6800,2192
9.6820,4945
9.6840,2800
9.6860,5457
9.6880,8177
9.6900,1600
9.6920,4321
9.6940,5505
9.6960,2752
9.6980,2816
9.7000,2208
9.7020,9138
9.7040,8177
9.7060,8145
9.7080,5201
9.7100,7809
9.7120,8177
9.7140,11010
9.7160,4385
9.7180,14803
9.7200,2224
9.7220,2000
9.7240,3200
9.7260,8578
9.7280,3072
9.7300,5137
9.7320,8097
9.7340,1984
9.7360,5361
9.7380,5537
9.7400,5665
9.7420,1520
9.7440,6577
9.7460,5105
9.7480,2272
9.7500,3888
9.7520,16532
9.7540,2208
9.7560,3744
9.7580,6161
9.7600,1280
9.7620,4769
9.7640,9154
9.7660,1680
9.7680,8770
9.7700,2000
9.7720,2608
9.7740,4225
9.7760,4897
9.7780,1360
9.7800,8033
9.7820,11666
9.7840,3488
9.7860,3984
9.7880,3248
9.7900,3600
9.7920,13347
9.7940,2096
9.7960,25558
9.7980,15571
9.8000,1840
9.8020,13539
9.8040,4737
9.8060,8177
9.8080,1680
9.8100,2832
9.8120,9106
9.8140,3536
9.8160,24533
9.8180,19780
9.8200,8642
9.8220,2640
9.8240,7121
9.8260,15475
9.8280,2496
9.8300,16916
9.8320,16708
9.8340,1760
9.8360,6417
9.8380,2240
9.8400,2480
9.8420,1152
9.8440,2688
9.8460,18596
9.8480,2192
9.8500,2640
9.8520,1632
9.8540,11474
9.8560,3424
9.8580,9154
9.8600,9362
9.8620,2912
9.8640,1952
9.8660,3856
9.8680,2768
9.8700,7633
9.8720,5393
9.8740,2912
9.8760,1312
9.8780,1936
9.8800,2720
9.8820,24021
9.8840,26630
9.8860,9282
9.8880,4193
9.8900,6945
9.8920,3984
9.8940,22213
9.8960,2576
9.8980,3296
9.9000,6705
9.9020,9570
9.9040,2048
9.9060,10722
9.9080,1584
9.9100,2144
9.9120,4625
9.9140,1936
9.9160,15635
9.9180,5281
9.9200,8850
9.9220,2560
9.9240,6705
9.9260,1296
9.9280,4753
9.9300,6737
9.9320,7857
9.9340,3152
9.9360,1312
9.9380,2528
9.9400,7089
9.9420,1008
9.9440,6577
9.9460,16596
9.9480,10754
9.9500,11170
9.9520,20052
9.9540,2624
9.9560,37673
9.9580,21877
9.9600,16644
9.9620,1808
9.9640,7089
9.9660,8690
9.9680,1664
9.9700,2048
9.9720,3392
9.9740,1920
9.9760,9282
9.9780,6193
9.9800,1616
9.9820,3488
9.9840,4000
9.9860,1536
9.9880,5249
9.9900,11730
9.9920,3168
9.9940,1712
9.9960,2608
9.9980,5633
10.0000,1328
10.0020,6817
10.0040,8610
10.0060,2608
10.0080,6561
10.0100,3408
10.0120,5089
10.0140,14563
10.0160,5057
10.0180,17828
10.0200,2080
10.0220,3152
10.0240,3680
10.0260,1824
10.0280,9810
10.0300,4064
10.0320,2720
10.0340,5713
10.0360,8626
10.0380,8177
10.0400,9010
10.0420,3680
10.0440,2512
10.0460,10514
10.0480,6945
10.0500,8097
10.0520,2304
10.0540,11298
10.0560,8962
10.0580,18708
10.0600,15443
10.0620,13571
10.0640,1824
10.0660,3216
10.0680,4449
10.0700,15443
10.0720,5777
10.0740,19412
10.0760,12883
10.0780,4657
10.0800,1872
10.0820,1216
10.0840,2800
10.0860,9474
10.0880,2576
10.0900,6225
10.0920,12178
10.0940,4257
10.0960,2816
10.0980,3328
10.1000,6929
10.1020,7377
10.1040,4257
10.1060,3792
10.1080,6945
10.1100,7377
10.1120,2784
10.1140,3600
10.1160,2304
10.1180,1584
10.1200,13715
10.1220,11986
10.1240,8290
10.1260,16852
10.1280,5665
10.1300,1392
10.1320,1744
10.1340,6897
10.1360,27174
10.1380,32583
10.1400,31495
10.1420,27910
10.1440,1680
10.1460,9250
10.1480,16275
10.1500,1696
10.1520,1600
10.1540,2240
10.1560,4193
10.1580,3472
10.1600,2528
10.1620,7633
10.1640,21509
10.1660,2640
10.1680,14371
10.1700,12419
10.1720,12034
10.1740,13379
10.1760,6689
10.1780,2848
10.1800,12419
10.1820,7761
10.1840,3808
10.1860,3552
10.1880,6097
10.1900,1760
10.1920,4000
10.1940,3904
10.1960,5073
10.1980,5777
10.2000,1952
10.2020,5185
10.2040,9138
10.2060,5921
10.2080,5521
10.2100,1968
10.2120,13843
10.2140,1408
10.2160,10242
10.2180,3008
10.2200,13955
10.2220,2768
10.2240,2464
10.2260,20036
10.2280,2912
10.2300,10626
10.2320,1696
10.2340,8001
10.2360,1312
10.2380,1552
10.2400,1600
10.2420,2560
10.2440,8290
10.2460,1744
10.2480,1968
10.2500,1584
10.2520,1744
10.2540,5729
10.2560,2080
10.2580,1808
10.2600,5233
10.2620,2208
10.2640,4801
10.2660,1888
10.2680,8161
10.2700,6417
10.2720,6977
10.2740,1600
10.2760,7697
10.2780,1952
10.2800,5089
10.2820,7361
10.2840,2208
10.2860,1664
10.2880,2208
10.2900,3104
10.2920,2064
10.2940,4945
10.2960,1792
10.2980,3504
10.3000,2640
10.3020,4881
10.3040,1808
10.3060,2048
10.3080,2640
10.3100,6161
10.3120,1792
10.3140,5185
10.3160,4593
10.3180,18644
10.3200,21813
10.3220,2592
10.3240,3216
10.3260,9666
10.3280,1328
10.3300,5489
10.3320,3232
10.3340,5201
10.3360,8642
10.3380,3792
10.3400,1984
10.3420,1440
10.3440,1568
10.3460,1744
10.3480,1744
10.3500,16195
10.3520,6225
10.3540,3072
10.3560,2880
10.3580,3200
10.3600,7057
10.3620,11490
10.3640,2864
10.3660,1664
10.3680,3312
10.3700,3936
10.3720,3392
10.3740,2752
10.3760,1232
10.3780,2096
10.3800,1888
10.3820,1968
10.3840,1376
10.3860,1856
10.3880,2368
10.3900,1488
10.3920,4545
10.3940,3728
10.3960,15059
10.3980,7505
10.4000,9650
10.4020,2432
10.4040,21733
10.4060,12130
10.4080,1328
10.4100,2624
10.4120,1456
10.4140,3888
10.4160,6865
10.4180,2368
10.4200,1712
10.4220,1296
10.4240,2352
10.4260,1968
10.4280,1248
10.4300,1984
10.4320,1680
10.4340,1568
10.4360,3408
10.4380,3552
10.4400,1600
10.4420,1840
10.4440,1888
10.4460,8562
10.4480,6817
10.4500,1232
10.4520,1152
10.4540,1248
10.4560,1248
10.4580,2688
10.4600,2352
10.4620,3920
10.4640,1872
10.4660,2016
10.4680,3040
10.4700,1872
10.4720,1712
10.4740,1680
10.4760,2176
10.4780,1872
10.4800,3024
10.4820,1936
10.4840,5505
10.4860,3232
10.4880,1968
10.4900,6913
10.4920,8177
10.4940,2256
10.4960,1536
10.4980,2256
10.5000,1488
10.5020,1232
10.5040,1232
10.5060,3904
10.5080,1840
10.5100,1424
10.5120,1728
10.5140,2864
10.5160,4577
10.5180,6801
10.5200,1792
10.5220,1712
10.5240,3376
10.5260,4289
10.5280,1440
10.5300,1520
10.5320,7105
10.5340,1280
10.5360,4273
10.5380,4113
10.5400,1664
10.5420,3296
10.5440,1872
10.5460,2176
10.5480,1840
10.5500,1344
10.5520,1280
10.5540,8978
10.5560,8274
10.5580,2576
10.5600,2400
10.5620,2000
10.5640,2128
10.5660,2176
10.5680,1920
10.5700,3040
10.5720,2064
10.5740,1520
10.5760,1536
10.5780,2368
10.5800,1888
10.5820,2560
10.5840,3616
10.5860,1600
10.5880,1280
10.5900,1616
10.5920,3232
10.5940,1712
10.5960,2704
10.5980,2960
10.6000,1968
10.6020,3040
10.6040,3008
10.6060,1792
10.6080,2224
10.6100,1888
10.6120,1840
10.6140,8113
10.6160,2608
10.6180,2064
10.6200,2128
10.6220,2016
10.6240,1808
10.6260,1920
10.6280,1808
10.6300,1376
10.6320,1216
10.6340,4561
10.6360,3792
10.6380,2016
10.6400,4257
10.6420,2960
10.6440,1840
10.6460,2128
10.6480,11026
10.6500,4257
10.6520,3520
10.6540,2048
10.6560,1376
10.6580,4449
10.6600,3536
10.6620,3824
10.6640,1632
10.6660,1728
10.6680,1968
10.6700,1664
10.6720,3088
10.6740,1152
10.6760,1488
10.6780,2144
10.6800,1296
10.6820,1456
10.6840,2720
10.6860,2576
10.6880,3984
10.6900,1808
10.6920,2064
10.6940,1664
10.6960,1744
10.6980,1760
10.7000,6417
10.7020,1312
10.7040,2704
10.7060,1552
10.7080,1824
10.7100,1920
10.7120,1776
10.7140,2208
10.7160,1424
10.7180,1536
10.7200,1216
10.7220,6161
10.7240,2256
10.7260,3024
10.7280,2352
10.7300,1488
10.7320,1872
10.7340,2240
10.7360,13635
10.7380,16420
10.7400,26758
10.7420,1584
10.7440,1664
10.7460,1568
10.7480,1360
10.7500,1488
10.7520,3408
10.7540,3584
10.7560,2688
10.7580,2432
10.7600,6609
10.7620,4113
10.7640,2112
10.7660,1280
10.7680,1712
10.7700,1696
10.7720,1632
10.7740,1216
10.7760,1744
10.7780,1248
10.7800,2112
10.7820,1824
10.7840,2432
10.7860,1296
10.7880,1632
10.7900,1536
10.7920,2752
10.7940,1696
10.7960,2944
10.7980,2816
10.8000,1552
10.8020,1856
10.8040,1616
10.8060,1536
10.8080,1216
10.8100,1408
10.8120,2864
10.8140,2896
10.8160,1856
10.8180,1552
10.8200,1232
10.8220,1568
10.8240,1936
10.8260,2608
10.8280,1424
10.8300,1424
10.8320,1408
10.8340,6849
10.8360,12114
10.8380,3152
10.8400,10658
10.8420,1632
10.8440,1680
10.8460,1760
10.8480,1216
10.8500,3472
10.8520,2304
10.8540,1600
10.8560,1408
10.8580,2240
10.8600,3328
10.8620,4513
10.8640,1584
10.8660,1200
10.8680,1104
10.8700,2352
10.8720,960
10.8740,1376
10.8760,2912
10.8780,1568
10.8800,1344
10.8820,1584
10.8840,1440
10.8860,2224
10.8880,1360
10.8900,1248
10.8920,1296
10.8940,1616
10.8960,3072
10.8980,1488
10.9000,2016
10.9020,1696
10.9040,1744
10.9060,1408
10.9080,1600
10.9100,2016
10.9120,3392
10.9140,1232
10.9160,1264
10.9180,4449
10.9200,1168
10.9220,1920
10.9240,1216
10.9260,1456
10.9280,1520
10.9300,1312
10.9320,1712
10.9340,2400
10.9360,1168
10.9380,1984
10.9400,1984
10.9420,3904
10.9440,11106
10.9460,4273
10.9480,2432
10.9500,1760
10.9520,1936
10.9540,1120
10.9560,1872
10.9580,2080
10.9600,2496
10.9620,1376
10.9640,1440
10.9660,1328
10.9680,1600
10.9700,1216
10.9720,1664
10.9740,2176
10.9760,1584
10.9780,2480
10.9800,2368
10.9820,1424
10.9840,1424
10.9860,2192
10.9880,2096
10.9900,1088
10.9920,2336
10.9940,1360
10.9960,1536
10.9980,2592
11.0000,3600
11.0020,2400
11.0040,1824
11.0060,1232
11.0080,1696
11.0100,1424
11.0120,1680
11.0140,1776
11.0160,2064
11.0180,1280
11.0200,1552
11.0220,1152
11.0240,1376
11.0260,1760
11.0280,6673
11.0300,2176
11.0320,2160
11.0340,2784
11.0360,1584
11.0380,6881
11.0400,1744
11.0420,1840
11.0440,2176
11.0460,2624
11.0480,2864
11.0500,1872
11.0520,1168
11.0540,1360
11.0560,1440
11.0580,2992
11.0600,2128
11.0620,2048
11.0640,1488
11.0660,1776
11.0680,1424
11.0700,1920
11.0720,1472
11.0740,1712
11.0760,1808
11.0780,8946
11.0800,4401
11.0820,1312
11.0840,5137
11.0860,2144
11.0880,2272
11.0900,1552
11.0920,1888
11.0940,976
11.0960,1616
11.0980,1664
11.1000,1760
11.1020,3856
11.1040,1824
11.1060,2832
11.1080,2224
11.1100,3120
11.1120,1264
11.1140,1552
11.1160,1280
11.1180,1680
11.1200,1072
11.1220,1232
11.1240,1792
11.1260,1760
11.1280,3872
11.1300,3120
11.1320,4161
11.1340,1184
11.1360,1120
11.1380,1360
11.1400,1280
11.1420,1584
11.1440,1504
11.1460,1312
11.1480,976
11.1500,8274
11.1520,5873
11.1540,1344
11.1560,1200
11.1580,1312
11.1600,1440
11.1620,2320
11.1640,1360
11.1660,2816
11.1680,1840
11.1700,1296
11.1720,1456
11.1740,3408
11.1760,1632
11.1780,3152
11.1800,1328
11.1820,1104
11.1840,5089
11.1860,7729
11.1880,7649
11.1900,3648
11.1920,1680
11.1940,1424
11.1960,3632
11.1980,1584
11.2000,1584
11.2020,1424
11.2040,1504
11.2060,1616
11.2080,1744
11.2100,1536
11.2120,2368
11.2140,1536
11.2160,1296
11.2180,3136
11.2200,2080
11.2220,1120
11.2240,1648
11.2260,2656
11.2280,2128
11.2300,1344
11.2320,5969
11.2340,8930
11.2360,1376
11.2380,1168
11.2400,1488
11.2420,2048
11.2440,6865
11.2460,3600
11.2480,1136
11.2500,1248
11.2520,1168
11.2540,1328
11.2560,1088
11.2580,1168
11.2600,1520
11.2620,1408
11.2640,1440
11.2660,1120
11.2680,2192
11.2700,1312
11.2720,2016
11.2740,1440
11.2760,1552
11.2780,2368
11.2800,1744
11.2820,1440
11.2840,1168
11.2860,4257
11.2880,1504
11.2900,1760
11.2920,1536
11.2940,1760
11.2960,1408
11.2980,2320
11.3000,960
11.3020,2512
11.3040,2848
11.3060,1152
11.3080,4145
11.3100,1328
11.3120,1328
11.3140,2480
11.3160,1840
11.3180,2400
11.3200,1168
11.3220,1248
11.3240,1536
11.3260,1344
11.3280,1344
11.3300,1664
11.3320,1360
11.3340,1344
11.3360,1408
11.3380,1568
11.3400,1344
11.3420,1504
11.3440,3168
11.3460,8834
11.3480,1152
11.3500,1952
11.3520,1248
11.3540,1232
11.3560,1504
11.3580,2208
11.3600,1456
11.3620,1296
11.3640,2048
11.3660,2832
11.3680,1568
11.3700,1680
11.3720,1744
11.3740,1696
11.3760,1696
11.3780,2736
11.3800,1584
11.3820,1808
11.3840,4737
11.3860,1424
11.3880,1600
11.3900,1104
11.3920,1456
11.3940,1760
11.3960,1152
11.3980,1024
11.4000,1856
11.4020,2112
11.4040,2544
11.4060,1952
11.4080,2048
11.4100,1408
11.4120,1552
11.4140,1216
11.4160,2096
11.4180,3728
11.4200,1664
11.4220,5425
11.4240,6049
11.4260,2384
11.4280,1888
11.4300,1840
11.4320,5089
11.4340,10034
11.4360,2176
11.4380,3536
11.4400,2992
11.4420,1680
11.4440,1824
11.4460,992
11.4480,1616
11.4500,2496
11.4520,1184
11.4540,1584
11.4560,1232
11.4580,960
11.4600,1168
11.4620,1216
11.4640,1632
11.4660,1184
11.4680,4609
11.4700,8177
11.4720,15331
11.4740,1552
11.4760,1440
11.4780,1456
11.4800,1808
11.4820,1088
11.4840,1488
11.4860,1568
11.4880,1440
11.4900,1456
11.4920,1424
11.4940,1824
11.4960,1616
11.4980,1728
11.5000,2512
11.5020,1616
11.5040,1408
11.5060,1792
11.5080,1728
11.5100,1168
11.5120,1184
11.5140,1344
11.5160,1456
11.5180,1536
11.5200,1488
11.5220,1248
11.5240,1616
11.5260,944
11.5280,1184
11.5300,1232
11.5320,1344
11.5340,1904
11.5360,832
11.5380,1456
11.5400,1824
11.5420,848
11.5440,1184
11.5460,1360
11.5480,1584
11.5500,1040
11.5520,1584
11.5540,1408
11.5560,5393
11.5580,4321
11.5600,1856
11.5620,1120
11.5640,1504
11.5660,1296
11.5680,1728
11.5700,1456
11.5720,1248
11.5740,1728
11.5760,1696
11.5780,1456
11.5800,6049
11.5820,6449
11.5840,1344
11.5860,2400
11.5880,1536
11.5900,2112
11.5920,1824
11.5940,1216
11.5960,1680
11.5980,1408
11.6000,1600
11.6020,2192
11.6040,1200
11.6060,1536
11.6080,11314
11.6100,11010
11.6120,2864
11.6140,1472
11.6160,1376
11.6180,1744
11.6200,1168
11.6220,1264
11.6240,3520
11.6260,1328
11.6280,1312
11.6300,1312
11.6320,1152
11.6340,1312
11.6360,1232
11.6380,1696
11.6400,1232
11.6420,1376
11.6440,1296
11.6460,1024
11.6480,1824
11.6500,1248
11.6520,1120
11.6540,3232
11.6560,1328
11.6580,2016
11.6600,1184
11.6620,2256
11.6640,1376
11.6660,1104
11.6680,960
11.6700,1120
11.6720,1488
11.6740,1200
11.6760,1824
11.6780,1536
11.6800,1344
11.6820,1456
11.6840,2064
11.6860,7297
11.6880,2976
11.6900,1824
11.6920,2096
11.6940,1456
11.6960,7169
11.6980,1408
11.7000,1696
11.7020,992
11.7040,1456
11.7060,1200
11.7080,1200
11.7100,1568
11.7120,1104
11.7140,1056
11.7160,1072
11.7180,1584
11.7200,1040
11.7220,1248
11.7240,1968
11.7260,1376
11.7280,1696
11.7300,1088
11.7320,1440
11.7340,1552
11.7360,6529
11.7380,3664
11.7400,1808
11.7420,1184
11.7440,1936
11.7460,2432
11.7480,1792
11.7500,1008
11.7520,2784
11.7540,1184
11.7560,1232
11.7580,1328
11.7600,1248
11.7620,3936
11.7640,1040
11.7660,1456
11.7680,992
11.7700,5377
11.7720,2592
11.7740,1888
11.7760,3968
11.7780,1584
11.7800,1360
11.7820,928
11.7840,864
11.7860,1824
11.7880,1184
11.7900,1408
11.7920,1072
11.7940,1360
11.7960,1456
11.7980,1280
11.8000,1440
11.8020,1824
11.8040,976
11.8060,1904
11.8080,928
11.8100,1424
11.8120,3648
11.8140,8338
11.8160,2112
11.8180,1168
11.8200,2064
11.8220,1440
11.8240,976
11.8260,1392
11.8280,1152
11.8300,1152
11.8320,1296
11.8340,1088
11.8360,2144
11.8380,1232
11.8400,2112
11.8420,2528
11.8440,1504
11.8460,1696
11.8480,1856
11.8500,1376
11.8520,1568
11.8540,1264
11.8560,2144
11.8580,2064
11.8600,1472
11.8620,2560
11.8640,1488
11.8660,1584
11.8680,1376
11.8700,3296
11.8720,8081
11.8740,1856
11.8760,1696
11.8780,1808
11.8800,1360
11.8820,1152
11.8840,1424
11.8860,1664
11.8880,2992
11.8900,1536
11.8920,1696
11.8940,1456
11.8960,1152
11.8980,2400
11.9000,1872
11.9020,2320
11.9040,1536
11.9060,5761
11.9080,1152
11.9100,1168
11.9120,1424
11.9140,2880
11.9160,2608
11.9180,1088
11.9200,1056
11.9220,1312
11.9240,1632
11.9260,1072
11.9280,1584
11.9300,1248
11.9320,2048
11.9340,1552
11.9360,1104
11.9380,2048
11.9400,1120
11.9420,1312
11.9440,2256
11.9460,1632
11.9480,1104
11.9500,1456
11.9520,1328
11.9540,1360
11.9560,1536
11.9580,1744
11.9600,1696
11.9620,2048
11.9640,3168
11.9660,1280
11.9680,1584
11.9700,2880
11.9720,2464
11.9740,5841
11.9760,1328
11.9780,1216
11.9800,1408
11.9820,1120
11.9840,1088
11.9860,1024
11.9880,1152
11.9900,2016
11.9920,1632
11.9940,1200
11.9960,1168
11.9980,1792
12.0000,1040
12.0020,816
12.0040,1568
12.0060,4817
12.0080,3072
12.0100,1360
12.0120,2144
12.0140,1632
12.0160,1152
12.0180,1056
12.0200,1248
12.0220,1600
12.0240,1280
12.0260,1040
12.0280,1024
12.0300,1360
12.0320,1744
12.0340,6737
12.0360,2736
12.0380,1424
12.0400,1072
12.0420,1488
12.0440,1472
12.0460,928
12.0480,2848
12.0500,2064
12.0520,2304
12.0540,3008
12.0560,2016
12.0580,1360
12.0600,1344
12.0620,1072
12.0640,1456
12.0660,3392
12.0680,6689
12.0700,2736
12.0720,1584
12.0740,6337
12.0760,3632
12.0780,1760
12.0800,992
12.0820,1152
12.0840,1040
12.0860,1536
12.0880,2704
12.0900,10450
12.0920,2064
12.0940,7569
12.0960,4657
12.0980,2128
12.1000,1280
12.1020,976
12.1040,1488
12.1060,1456
12.1080,1712
12.1100,1952
12.1120,1376
12.1140,2656
12.1160,1952
12.1180,1200
12.1200,1216
12.1220,1504
12.1240,1968
12.1260,1712
12.1280,1856
12.1300,1616
12.1320,1920
12.1340,1584
12.1360,1184
12.1380,2368
12.1400,1072
12.1420,1328
12.1440,1136
12.1460,1328
12.1480,1488
12.1500,2992
12.1520,2176
12.1540,1840
12.1560,2384
12.1580,928
12.1600,1120
12.1620,1280
12.1640,6561
12.1660,5377
12.1680,912
12.1700,1536
12.1720,2400
12.1740,1040
12.1760,1472
12.1780,1472
12.1800,2000
12.1820,848
12.1840,1552
12.1860,1696
12.1880,1552
12.1900,1408
12.1920,1696
12.1940,1632
12.1960,2608
12.1980,2048
12.2000,1344
12.2020,4689
12.2040,2944
12.2060,848
12.2080,1296
12.2100,1408
12.2120,1072
12.2140,1472
12.2160,1968
12.2180,1872
12.2200,1184
12.2220,1488
12.2240,1696
12.2260,1120
12.2280,1808
12.2300,1104
12.2320,5665
12.2340,3024
12.2360,3360
12.2380,1488
12.2400,1504
12.2420,1872
12.2440,1104
12.2460,1520
12.2480,1120
12.2500,3600
12.2520,3952
12.2540,7009
12.2560,1200
12.2580,1504
12.2600,1072
12.2620,2832
12.2640,1040
12.2660,1632
12.2680,1232
12.2700,928
12.2720,1552
12.2740,1296
12.2760,1424
12.2780,832
12.2800,1440
12.2820,1584
12.2840,1648
12.2860,1168
12.2880,1280
12.2900,1168
12.2920,1856
12.2940,1296
12.2960,1184
12.2980,944
12.3000,1872
12.3020,1488
12.3040,1664
12.3060,1456
12.3080,1152
12.3100,1088
12.3120,1088
12.3140,1232
12.3160,896
12.3180,736
12.3200,1568
12.3220,1632
12.3240,1296
12.3260,1072
12.3280,1152
12.3300,2080
12.3320,1744
12.3340,1824
12.3360,3104
12.3380,2944
12.3400,1744
12.3420,1200
12.3440,1456
12.3460,1296
12.3480,1968
12.3500,1680
12.3520,1344
12.3540,2336
12.3560,1072
12.3580,8177
12.3600,10466
12.3620,1888
12.3640,1936
12.3660,1424
12.3680,1584
12.3700,1184
12.3720,1456
12.3740,1440
12.3760,1280
12.3780,1504
12.3800,1280
12.3820,1408
12.3840,1328
12.3860,1088
12.3880,6401
12.3900,1504
12.3920,1888
12.3940,1472
12.3960,1392
12.3980,1520
12.4000,2720
12.4020,1344
12.4040,1584
12.4060,1184
12.4080,1936
12.4100,3200
12.4120,2272
12.4140,1744
12.4160,1392
12.4180,1296
12.4200,1056
12.4220,1024
12.4240,1872
12.4260,1744
12.4280,1360
12.4300,1248
12.4320,1168
12.4340,928
12.4360,2560
12.4380,1376
12.4400,768
12.4420,1968
12.4440,1680
12.4460,960
12.4480,1488
12.4500,1424
12.4520,1456
12.4540,1184
12.4560,992
12.4580,1568
12.4600,1312
12.4620,1600
12.4640,2624
12.4660,3168
12.4680,2224
12.4700,1120
12.4720,2336
12.4740,1264
12.4760,2288
12.4780,1504
12.4800,1568
12.4820,1568
12.4840,1584
12.4860,1296
12.4880,1904
12.4900,1296
12.4920,1168
12.4940,1664
12.4960,1280
12.4980,1312
12.5000,1168
12.5020,1632
12.5040,1344
12.5060,1088
12.5080,1216
12.5100,1632
12.5120,1296
12.5140,1552
12.5160,992
12.5180,1536
12.5200,1312
12.5220,1216
12.5240,880
12.5260,1728
12.5280,992
12.5300,1168
12.5320,1232
12.5340,1040
12.5360,2256
12.5380,1424
12.5400,976
12.5420,1360
12.5440,928
12.5460,1776
12.5480,2800
12.5500,1376
12.5520,1696
12.5540,1552
12.5560,1040
12.5580,1280
12.5600,1968
12.5620,976
12.5640,1712
12.5660,1152
12.5680,1552
12.5700,1152
12.5720,1760
12.5740,1424
12.5760,1040
12.5780,1104
12.5800,1424
12.5820,1328
12.5840,7601
12.5860,4257
12.5880,1984
12.5900,1280
12.5920,1760
12.5940,944
12.5960,912
12.5980,1424
12.6000,1232
12.6020,5457
12.6040,2480
12.6060,1408
12.6080,1424
12.6100,1664
12.6120,1344
12.6140,2864
12.6160,2176
12.6180,1952
12.6200,1408
12.6220,1200
12.6240,960
12.6260,1936
12.6280,1536
12.6300,1248
12.6320,2496
12.6340,1584
12.6360,1712
12.6380,1056
12.6400,2128
12.6420,1232
12.6440,1568
12.6460,1744
12.6480,1136
12.6500,1168
12.6520,1856
12.6540,832
12.6560,1216
12.6580,1456
12.6600,2592
12.6620,2896
12.6640,1088
12.6660,1248
12.6680,1488
12.6700,1408
12.6720,6065
12.6740,2256
12.6760,3008
12.6780,1088
12.6800,1552
12.6820,1088
12.6840,2608
12.6860,1376
12.6880,3408
12.6900,1776
12.6920,1536
12.6940,3360
12.6960,3008
12.6980,1600
12.7000,1072
12.7020,1376
12.7040,1664
12.7060,1568
12.7080,1888
12.7100,2176
12.7120,1040
12.7140,928
12.7160,1056
12.7180,1040
12.7200,1472
12.7220,1072
12.7240,1264
12.7260,1312
12.7280,1712
12.7300,1488
12.7320,960
12.7340,1168
12.7360,1568
12.7380,2400
12.7400,1376
12.7420,2560
12.7440,1968
12.7460,1568
12.7480,3104
12.7500,2224
12.7520,1056
12.7540,1200
12.7560,1360
12.7580,1120
12.7600,1600
12.7620,2208
12.7640,1696
12.7660,2208
12.7680,1504
12.7700,1344
12.7720,1616
12.7740,1008
12.7760,2912
12.7780,1440
12.7800,1360
12.7820,2112
12.7840,1328
12.7860,1296
12.7880,1072
12.7900,1552
12.7920,2320
12.7940,4225
12.7960,8450
12.7980,1104
12.8000,1328
12.8020,1024
12.8040,1184
12.8060,1232
12.8080,3328
12.8100,1264
12.8120,1104
12.8140,1808
12.8160,1536
12.8180,2048
12.8200,1424
12.8220,1280
12.8240,1248
12.8260,1264
12.8280,1456
12.8300,1072
12.8320,1360
12.8340,4561
12.8360,1536
12.8380,1312
12.8400,1088
12.8420,976
12.8440,1184
12.8460,1360
12.8480,1840
12.8500,1232
12.8520,1424
12.8540,1040
12.8560,1536
12.8580,2288
12.8600,1376
12.8620,2288
12.8640,2528
12.8660,1200
12.8680,1200
12.8700,832
12.8720,1328
12.8740,1376
12.8760,1440
12.8780,1408
12.8800,1168
12.8820,1040
12.8840,3264
12.8860,3328
12.8880,1984
12.8900,1424
12.8920,912
12.8940,1984
12.8960,1248
12.8980,992
12.9000,1504
12.9020,1312
12.9040,1696
12.9060,1056
12.9080,1024
12.9100,1280
12.9120,1072
12.9140,1376
12.9160,1120
12.9180,2208
12.9200,1488
12.9220,1184
12.9240,1024
12.9260,1568
12.9280,912
12.9300,1264
12.9320,704
12.9340,1184
12.9360,2112
12.9380,2560
12.9400,2080
12.9420,1184
12.9440,1120
12.9460,1328
12.9480,1088
12.9500,2816
12.9520,2544
12.9540,2304
12.9560,864
12.9580,1376
12.9600,1424
12.9620,960
12.9640,1232
12.9660,1200
12.9680,2096
12.9700,1280
12.9720,1568
12.9740,1568
12.9760,1024
12.9780,1328
12.9800,4177
12.9820,2928
12.9840,1520
12.9860,1632
12.9880,2464
12.9900,1456
12.9920,1184
12.9940,1392
12.9960,2400
12.9980,1856
13.0000,1104
13.0020,1824
13.0040,2080
13.0060,1360
13.0080,848
13.0100,1216
13.0120,1280
13.0140,2000
13.0160,1456
13.0180,1472
13.0200,1120
13.0220,1536
13.0240,1936
13.0260,2896
13.0280,1232
13.0300,1152
13.0320,1360
13.0340,1600
13.0360,912
13.0380,2528
13.0400,1264
13.0420,1600
13.0440,944
13.0460,864
13.0480,1568
13.0500,1184
13.0520,960
13.0540,976
13.0560,2752
13.0580,2096
13.0600,2224
13.0620,960
13.0640,1152
13.0660,1168
13.0680,1072
13.0700,1248
13.0720,1328
13.0740,2512
13.0760,1376
13.0780,1312
13.0800,1120
13.0820,1440
13.0840,3312
13.0860,1808
13.0880,4353
13.0900,1872
13.0920,1312
13.0940,1552
13.0960,1472
13.0980,2048
13.1000,848
13.1020,944
13.1040,1168
13.1060,1200
13.1080,1024
13.1100,1472
13.1120,1168
13.1140,1296
13.1160,1456
13.1180,1344
13.1200,1472
13.1220,1328
13.1240,1120
13.1260,1280
13.1280,2256
13.1300,1648
13.1320,1104
13.1340,1792
13.1360,1328
13.1380,1424
13.1400,1616
13.1420,1360
13.1440,1712
13.1460,1456
13.1480,1056
13.1500,1856
13.1520,1872
13.1540,1312
13.1560,928
13.1580,1200
13.1600,1440
13.1620,1424
13.1640,1344
13.1660,1088
13.1680,4289
13.1700,2064
13.1720,1840
13.1740,1856
13.1760,2832
13.1780,1888
13.1800,1104
13.1820,1328
13.1840,1360
13.1860,976
13.1880,1552
13.1900,1376
13.1920,2112
13.1940,1120
13.1960,1120
13.1980,1984
13.2000,976
13.2020,1040
13.2040,960
13.2060,1152
13.2080,1152
13.2100,1712
13.2120,2432
13.2140,1104
13.2160,1200
13.2180,2208
13.2200,1200
13.2220,1056
13.2240,1280
13.2260,2048
13.2280,1232
13.2300,1600
13.2320,1728
13.2340,1424
13.2360,1056
13.2380,1984
13.2400,1648
13.2420,1568
13.2440,832
13.2460,896
13.2480,1120
13.2500,2656
13.2520,944
13.2540,1568
13.2560,1680
13.2580,3248
13.2600,1952
13.2620,1424
13.2640,1344
13.2660,944
13.2680,1248
13.2700,976
13.2720,1440
13.2740,1232
13.2760,1264
13.2780,2656
13.2800,1520
13.2820,944
13.2840,4545
13.2860,1632
13.2880,1216
13.2900,1392
13.2920,1616
13.2940,704
13.2960,976
13.2980,8161
13.3000,1296
13.3020,1424
13.3040,1488
13.3060,1360
13.3080,1184
13.3100,2208
13.3120,1024
13.3140,1024
13.3160,1168
13.3180,1664
13.3200,1616
13.3220,1440
13.3240,1216
13.3260,1408
13.3280,1360
13.3300,2512
13.3320,3040
13.3340,1056
13.3360,1824
13.3380,2864
13.3400,1696
13.3420,1104
13.3440,2384
13.3460,2736
13.3480,2000
13.3500,1120
13.3520,1552
13.3540,1424
13.3560,1152
13.3580,1312
13.3600,896
13.3620,1104
13.3640,1664
13.3660,1024
13.3680,2000
13.3700,1280
13.3720,1248
13.3740,960
13.3760,1248
13.3780,1248
13.3800,992
13.3820,976
13.3840,1232
13.3860,1376
13.3880,1344
13.3900,1232
13.3920,1440
13.3940,1360
13.3960,1840
13.3980,1696
13.4000,2400
13.4020,1120
13.4040,1776
13.4060,1904
13.4080,2336
13.4100,1328
13.4120,1840
13.4140,1168
13.4160,1760
13.4180,1552
13.4200,1024
13.4220,864
13.4240,2400
13.4260,1712
13.4280,1344
13.4300,8658
13.4320,1424
13.4340,1104
13.4360,1024
13.4380,1360
13.4400,1328
13.4420,992
13.4440,1392
13.4460,1248
13.4480,992
13.4500,1248
13.4520,1728
13.4540,1488
13.4560,1408
13.4580,1360
13.4600,1744
13.4620,896
13.4640,3104
13.4660,912
13.4680,1184
13.4700,1472
13.4720,1456
13.4740,1072
13.4760,944
13.4780,1744
13.4800,1920
13.4820,1376
13.4840,944
13.4860,2000
13.4880,1168
13.4900,2000
13.4920,1648
13.4940,960
13.4960,1408
13.4980,3120
13.5000,5857
13.5020,1440
13.5040,1440
13.5060,1376
13.5080,1088
13.5100,1344
13.5120,1440
13.5140,1120
13.5160,1120
13.5180,1872
13.5200,1504
13.5220,1600
13.5240,1712
13.5260,1472
13.5280,1440
13.5300,1184
13.5320,944
13.5340,1984
13.5360,5617
13.5380,2592
13.5400,1664
13.5420,1200
13.5440,3584
13.5460,1776
13.5480,2112
13.5500,1424
13.5520,1296
13.5540,1088
13.5560,1696
13.5580,1168
13.5600,1072
13.5620,1408
13.5640,1008
13.5660,1024
13.5680,2432
13.5700,1424
13.5720,1616
13.5740,1424
13.5760,1680
13.5780,1248
13.5800,1552
13.5820,2720
13.5840,2304
13.5860,1312
13.5880,1584
13.5900,1424
13.5920,1536
13.5940,1712
13.5960,1248
13.5980,1232
13.6000,1248
13.6020,1536
13.6040,2304
13.6060,1184
13.6080,5841
13.6100,4593
13.6120,1376
13.6140,1232
13.6160,928
13.6180,992
13.6200,1296
13.6220,1840
13.6240,960
13.6260,1088
13.6280,1312
13.6300,1216
13.6320,1344
13.6340,1632
13.6360,1232
13.6380,1088
13.6400,1024
13.6420,1808
13.6440,1376
13.6460,2240
13.6480,960
13.6500,1424
13.6520,2224
13.6540,944
13.6560,1424
13.6580,1248
13.6600,1616
13.6620,1936
13.6640,1536
13.6660,1184
13.6680,1248
13.6700,1600
13.6720,1248
13.6740,1488
13.6760,1616
13.6780,1936
13.6800,5105
13.6820,4225
13.6840,1840
13.6860,2112
13.6880,1792
13.6900,1184
13.6920,1408
13.6940,992
13.6960,1488
13.6980,1440
13.7000,1360
13.7020,896
13.7040,2944
13.7060,1104
13.7080,1568
13.7100,1344
13.7120,1568
13.7140,1456
13.7160,976
13.7180,976
13.7200,1136
13.7220,1120
13.7240,3264
13.7260,3040
13.7280,1504
13.7300,2848
13.7320,7441
13.7340,3040
13.7360,1552
13.7380,1488
13.7400,1040
13.7420,1856
13.7440,912
13.7460,3168
13.7480,3376
13.7500,1200
13.7520,1872
13.7540,1664
13.7560,1728
13.7580,1152
13.7600,1248
13.7620,1552
13.7640,1168
13.7660,960
13.7680,848
13.7700,2320
13.7720,2096
13.7740,1280
13.7760,1600
13.7780,1136
13.7800,2528
13.7820,1520
13.7840,1184
13.7860,1728
13.7880,1504
13.7900,1312
13.7920,1488
13.7940,2128
13.7960,1152
13.7980,1984
13.8000,960
13.8020,1248
13.8040,960
13.8060,1216
13.8080,960
13.8100,1168
13.8120,1472
13.8140,1440
13.8160,1776
13.8180,1680
13.8200,2496
13.8220,14115
13.8240,8274
13.8260,1408
13.8280,1216
13.8300,1024
13.8320,864
13.8340,1296
13.8360,2112
13.8380,1216
13.8400,1824
13.8420,1696
13.8440,960
13.8460,1856
13.8480,1632
13.8500,1680
13.8520,4449
13.8540,2240
13.8560,1344
13.8580,2736
13.8600,1424
13.8620,1296
13.8640,1344
13.8660,1360
13.8680,1328
13.8700,1440
13.8720,1120
13.8740,1456
13.8760,992
13.8780,2080
13.8800,1824
13.8820,5953
13.8840,4705
13.8860,1840
13.8880,1408
13.8900,1296
13.8920,1408
13.8940,1440
13.8960,2496
13.8980,1696
13.9000,992
13.9020,944
13.9040,1216
13.9060,1072
13.9080,1408
13.9100,1424
13.9120,992
13.9140,1184
13.9160,1280
13.9180,3488
13.9200,8594
13.9220,976
13.9240,1680
13.9260,2928
13.9280,1728
13.9300,1488
13.9320,1248
13.9340,1360
13.9360,1440
13.9380,1120
13.9400,1200
13.9420,2640
13.9440,1184
13.9460,1040
13.9480,1456
13.9500,1216
13.9520,1408
13.9540,1104
13.9560,1152
13.9580,1296
13.9600,1456
13.9620,1792
13.9640,2608
13.9660,1472
13.9680,3344
13.9700,1952
13.9720,1600
13.9740,2064
13.9760,1200
13.9780,1536
13.9800,1536
13.9820,1104
13.9840,1296
13.9860,1696
13.9880,1104
13.9900,1504
13.9920,1408
13.9940,1296
13.9960,896
13.9980,1088
14.0000,1456
14.0020,1072
14.0040,1232
14.0060,1616
14.0080,1056
14.0100,1024
14.0120,1168
14.0140,1408
14.0160,1360
14.0180,2976
14.0200,2336
14.0220,1248
14.0240,1088
14.0260,1280
14.0280,1120
14.0300,2000
14.0320,992
14.0340,1248
14.0360,1024
14.0380,1568
14.0400,1024
14.0420,816
14.0440,2192
14.0460,1136
14.0480,1376
14.0500,1392
14.0520,1152
14.0540,1248
14.0560,2016
14.0580,8978
14.0600,2176
14.0620,1520
14.0640,3040
14.0660,1920
14.0680,1152
14.0700,2480
14.0720,2640
14.0740,1664
14.0760,1472
14.0780,928
14.0800,2336
14.0820,1440
14.0840,1200
14.0860,1344
14.0880,1088
14.0900,1056
14.0920,1200
14.0940,1232
14.0960,1376
14.0980,976
14.1000,1728
14.1020,800
14.1040,1184
14.1060,1584
14.1080,1296
14.1100,3056
14.1120,3216
14.1140,1184
14.1160,1264
14.1180,1328
14.1200,2160
14.1220,2064
14.1240,1024
14.1260,1296
14.1280,1664
14.1300,1936
14.1320,1792
14.1340,2688
14.1360,1008
14.1380,2400
14.1400,3296
14.1420,2784
14.1440,1968
14.1460,1568
14.1480,1104
14.1500,1280
14.1520,1440
14.1540,1344
14.1560,960
14.1580,1200
14.1600,1520
14.1620,1456
14.1640,1152
14.1660,1552
14.1680,1536
14.1700,5201
14.1720,6353
14.1740,1712
14.1760,928
14.1780,1376
14.1800,1088
14.1820,1824
14.1840,1088
14.1860,1056
14.1880,1264
14.1900,1088
14.1920,1312
14.1940,1024
14.1960,1184
14.1980,1072
14.2000,1504
14.2020,1968
14.2040,2048
14.2060,1216
14.2080,1296
14.2100,1856
14.2120,2208
14.2140,3536
14.2160,1296
14.2180,2096
14.2200,1056
14.2220,1520
14.2240,912
14.2260,1488
14.2280,1312
14.2300,1440
14.2320,960
14.2340,896
14.2360,992
14.2380,1344
14.2400,1712
14.2420,1584
14.2440,1344
14.2460,1936
14.2480,1408
14.2500,1536
14.2520,2064
14.2540,1296
14.2560,1104
14.2580,1584
14.2600,2224
14.2620,2512
14.2640,976
14.2660,2080
14.2680,752
14.2700,1024
14.2720,1248
14.2740,1808
14.2760,3200
14.2780,1872
14.2800,1728
14.2820,2000
14.2840,1120
14.2860,3488
14.2880,3840
14.2900,3584
14.2920,1024
14.2940,848
14.2960,2512
14.2980,2656
14.3000,3328
14.3020,848
14.3040,1488
14.3060,1184
14.3080,1360
14.3100,1184
14.3120,1168
14.3140,1376
14.3160,1280
14.3180,1200
14.3200,1328
14.3220,1040
14.3240,1680
14.3260,3584
14.3280,3552
14.3300,1408
14.3320,1488
14.3340,976
14.3360,1888
14.3380,2448
14.3400,2256
14.3420,1808
14.3440,1792
14.3460,6017
14.3480,992
14.3500,1264
14.3520,1440
14.3540,1328
14.3560,1232
14.3580,1472
14.3600,1184
14.3620,1952
14.3640,1824
14.3660,1824
14.3680,1568
14.3700,1232
14.3720,1584
14.3740,912
14.3760,1632
14.3780,1536
14.3800,3120
14.3820,1104
14.3840,1648
14.3860,1056
14.3880,1712
14.3900,1584
14.3920,1344
14.3940,1552
14.3960,1408
14.3980,1504
14.4000,1200
14.4020,1808
14.4040,1600
14.4060,2128
14.4080,1536
14.4100,1200
14.4120,1184
14.4140,1472
14.4160,1440
14.4180,1440
14.4200,1728
14.4220,1024
14.4240,2320
14.4260,1040
14.4280,1376
14.4300,1472
14.4320,1200
14.4340,832
14.4360,992
14.4380,848
14.4400,1120
14.4420,2176
14.4440,1056
14.4460,1488
14.4480,3328
14.4500,1680
14.4520,2720
14.4540,1296
14.4560,6209
14.4580,10594
14.4600,2336
14.4620,1024
14.4640,1200
14.4660,1072
14.4680,1472
14.4700,2016
14.4720,1024
14.4740,1056
14.4760,1088
14.4780,1040
14.4800,2368
14.4820,1280
14.4840,928
14.4860,1360
14.4880,1760
14.4900,1072
14.4920,2384
14.4940,1568
14.4960,1136
14.4980,1232
14.5000,1024
14.5020,1424
14.5040,1632
14.5060,2128
14.5080,1200
14.5100,2240
14.5120,1200
14.5140,1456
14.5160,1328
14.5180,1232
14.5200,1120
14.5220,992
14.5240,1440
14.5260,1152
14.5280,2144
14.5300,1088
14.5320,1200
14.5340,1440
14.5360,816
14.5380,1136
14.5400,2144
14.5420,2624
14.5440,1840
14.5460,1568
14.5480,1248
14.5500,1552
14.5520,5585
14.5540,3664
14.5560,4913
14.5580,1360
14.5600,1296
14.5620,1232
14.5640,1984
14.5660,1552
14.5680,944
14.5700,1760
14.5720,1104
14.5740,1088
14.5760,1280
14.5780,2080
14.5800,1072
14.5820,1408
14.5840,1152
14.5860,1280
14.5880,2000
14.5900,1024
14.5920,1504
14.5940,1584
14.5960,1248
14.5980,1200
14.6000,1424
14.6020,1344
14.6040,1296
14.6060,2128
14.6080,1280
14.6100,2336
14.6120,1200
14.6140,1104
14.6160,4849
14.6180,4497
14.6200,1600
14.6220,7297
14.6240,4000
14.6260,1552
14.6280,1312
14.6300,2640
14.6320,1088
14.6340,1280
14.6360,1152
14.6380,1360
14.6400,1312
14.6420,1456
14.6440,1872
14.6460,1472
14.6480,3120
14.6500,3024
14.6520,1280
14.6540,1456
14.6560,1552
14.6580,1152
14.6600,1056
14.6620,1872
14.6640,1168
14.6660,1024
14.6680,1248
14.6700,1248
14.6720,1104
14.6740,1280
14.6760,1344
14.6780,1248
14.6800,1360
14.6820,992
14.6840,3408
14.6860,1296
14.6880,832
14.6900,2112
14.6920,992
14.6940,1568
14.6960,1312
14.6980,2224
14.7000,1936
14.7020,976
14.7040,1456
14.7060,928
14.7080,928
14.7100,1328
14.7120,1440
14.7140,1488
14.7160,1200
14.7180,1312
14.7200,1680
14.7220,2608
14.7240,3232
14.7260,2864
14.7280,2992
14.7300,1472
14.7320,1584
14.7340,1168
14.7360,960
14.7380,848
14.7400,2192
14.7420,1728
14.7440,1248
14.7460,1296
14.7480,3680
14.7500,1456
14.7520,3984
14.7540,1296
14.7560,1920
14.7580,3248
14.7600,5009
14.7620,2416
14.7640,1408
14.7660,1280
14.7680,1264
14.7700,1328
14.7720,2016
14.7740,1104
14.7760,1584
14.7780,1280
14.7800,1296
14.7820,1008
14.7840,1552
14.7860,1728
14.7880,1040
14.7900,800
14.7920,912
14.7940,1248
14.7960,3248
14.7980,1856
14.8000,1680
14.8020,1216
14.8040,2848
14.8060,2496
14.8080,1568
14.8100,1248
14.8120,1504
14.8140,864
14.8160,1168
14.8180,2000
14.8200,1344
14.8220,928
14.8240,1424
14.8260,1600
14.8280,1920
14.8300,1216
14.8320,1024
14.8340,1296
14.8360,944
14.8380,1952
14.8400,1984
14.8420,1584
14.8440,1120
14.8460,3264
14.8480,1584
14.8500,1296
14.8520,1616
14.8540,1712
14.8560,1696
14.8580,1856
14.8600,912
14.8620,1808
14.8640,1424
14.8660,8498
14.8680,11986
14.8700,1024
14.8720,1792
14.8740,1424
14.8760,928
14.8780,1936
14.8800,1296
14.8820,1680
14.8840,1440
14.8860,1024
14.8880,1600
14.8900,1680
14.8920,1392
14.8940,1792
14.8960,1216
14.8980,1104
14.9000,1760
14.9020,1040
14.9040,1424
14.9060,1232
14.9080,1648
14.9100,2240
14.9120,1248
14.9140,1328
14.9160,1424
14.9180,992
14.9200,2176
14.9220,928
14.9240,1664
14.9260,7665
14.9280,8274
14.9300,1472
14.9320,1504
14.9340,1472
14.9360,2112
14.9380,992
14.9400,1376
14.9420,1328
14.9440,1536
14.9460,1248
14.9480,928
14.9500,976
14.9520,1056
14.9540,1376
14.9560,1312
14.9580,1584
14.9600,1216
14.9620,2384
14.9640,1040
14.9660,1456
14.9680,3168
14.9700,2864
14.9720,1584
14.9740,1248
14.9760,1200
14.9780,2384
14.9800,1376
14.9820,4849
14.9840,3856
14.9860,1152
14.9880,1552
14.9900,1072
14.9920,1056
14.9940,2112
14.9960,1424
14.9980,848
15.0000,1568
15.0020,1088
15.0040,816
15.0060,1168
15.0080,1088
15.0100,3104
15.0120,1552
15.0140,2128
15.0160,1744
15.0180,1536
15.0200,1616
15.0220,1232
15.0240,2240
15.0260,1312
15.0280,896
15.0300,1456
15.0320,1568
15.0340,1168
15.0360,1376
15.0380,2208
15.0400,1648
15.0420,1136
15.0440,1712
15.0460,1280
15.0480,2016
15.0500,1568
15.0520,1056
15.0540,1040
15.0560,1216
15.0580,2304
15.0600,1504
15.0620,1200
15.0640,976
15.0660,1056
15.0680,1360
15.0700,944
15.0720,1456
15.0740,1184
15.0760,1552
15.0780,1200
15.0800,1152
15.0820,1072
15.0840,4305
15.0860,1024
15.0880,7025
15.0900,1200
15.0920,4593
15.0940,1264
15.0960,1536
15.0980,6209
15.1000,1232
15.1020,1136
15.1040,1216
15.1060,944
15.1080,1888
15.1100,1088
15.1120,1024
15.1140,992
15.1160,1280
15.1180,1200
15.1200,1040
15.1220,1248
15.1240,928
15.1260,2192
15.1280,1552
15.1300,1168
15.1320,1152
15.1340,1072
15.1360,1488
15.1380,1360
15.1400,1184
15.1420,1808
15.1440,1248
15.1460,1248
15.1480,864
15.1500,1360
15.1520,1488
15.1540,1088
15.1560,1536
15.1580,1968
15.1600,1408
15.1620,1552
15.1640,1232
15.1660,928
15.1680,1056
15.1700,2016
15.1720,1216
15.1740,992
15.1760,1504
15.1780,1312
15.1800,1152
15.1820,1248
15.1840,912
15.1860,1440
15.1880,1456
15.1900,1280
15.1920,1200
15.1940,1248
15.1960,2336
15.1980,1360
15.2000,1728
15.2020,1712
15.2040,1648
15.2060,3008
15.2080,1680
15.2100,1568
15.2120,1216
15.2140,1952
15.2160,7985
15.2180,1696
15.2200,6065
15.2220,2640
15.2240,1552
15.2260,1248
15.2280,1504
15.2300,944
15.2320,1408
15.2340,1168
15.2360,1680
15.2380,1376
15.2400,1472
15.2420,1424
15.2440,2176
15.2460,1808
15.2480,1680
15.2500,976
15.2520,1040
15.2540,1488
15.2560,896
15.2580,1584
15.2600,1584
15.2620,1232
15.2640,1152
15.2660,1232
15.2680,1024
15.2700,1440
15.2720,1376
15.2740,1168
15.2760,1088
15.2780,1040
15.2800,1168
15.2820,1552
15.2840,1728
15.2860,1456
15.2880,1232
15.2900,1632
15.2920,1040
15.2940,2480
15.2960,2528
15.2980,5169
15.3000,2336
15.3020,1248
15.3040,1456
15.3060,1440
15.3080,2128
15.3100,2704
15.3120,1232
15.3140,1200
15.3160,1472
15.3180,4032
15.3200,1328
15.3220,1104
15.3240,5121
15.3260,5329
15.3280,992
15.3300,1152
15.3320,1248
15.3340,1472
15.3360,1264
15.3380,2832
15.3400,2304
15.3420,1440
15.3440,1072
15.3460,1120
15.3480,1280
15.3500,1344
15.3520,1376
15.3540,784
15.3560,1728
15.3580,1664
15.3600,4577
15.3620,3040
15.3640,1360
15.3660,944
15.3680,1232
15.3700,1360
15.3720,1840
15.3740,1872
15.3760,1248
15.3780,1680
15.3800,944
15.3820,1808
15.3840,784
15.3860,1376
15.3880,1664
15.3900,1680
15.3920,1680
15.3940,1360
15.3960,1152
15.3980,896
15.4000,960
15.4020,1152
15.4040,960
15.4060,1312
15.4080,1472
15.4100,1664
15.4120,1664
15.4140,1456
15.4160,912
15.4180,1184
15.4200,1264
15.4220,1072
15.4240,1232
15.4260,1184
15.4280,1488
15.4300,1040
15.4320,944
15.4340,1280
15.4360,912
15.4380,1456
15.4400,1120
15.4420,1088
15.4440,2384
15.4460,1056
15.4480,1248
15.4500,6209
15.4520,2880
15.4540,1360
15.4560,2112
15.4580,1312
15.4600,1376
15.4620,3264
15.4640,1600
15.4660,1024
15.4680,3504
15.4700,1136
15.4720,1440
15.4740,1936
15.4760,1920
15.4780,944
15.4800,1376
15.4820,2304
15.4840,1920
15.4860,1424
15.4880,2224
15.4900,1616
15.4920,1952
15.4940,1504
15.4960,1328
15.4980,928
15.5000,1456
15.5020,3504
15.5040,1872
15.5060,976
15.5080,1680
15.5100,1536
15.5120,2288
15.5140,1040
15.5160,1120
15.5180,1040
15.5200,816
15.5220,912
15.5240,1248
15.5260,1424
15.5280,944
15.5300,1760
15.5320,1136
15.5340,1488
15.5360,1344
15.5380,1280
15.5400,1536
15.5420,1680
15.5440,1152
15.5460,1872
15.5480,1104
15.5500,960
15.5520,1072
15.5540,1184
15.5560,1360
15.5580,1312
15.5600,1168
15.5620,1088
15.5640,1920
15.5660,1344
15.5680,1024
15.5700,1952
15.5720,2128
15.5740,1296
15.5760,1440
15.5780,1568
15.5800,1184
15.5820,4032
15.5840,3344
15.5860,1552
15.5880,1248
15.5900,1616
15.5920,1280
15.5940,1344
15.5960,1616
15.5980,2560
15.6000,1696
15.6020,1376
15.6040,1312
15.6060,1088
15.6080,1408
15.6100,1104
15.6120,1232
15.6140,1632
15.6160,1104
15.6180,1040
15.6200,1088
15.6220,1328
15.6240,1488
15.6260,1104
15.6280,1648
15.6300,1360
15.6320,1216
15.6340,1360
15.6360,1744
15.6380,1120
15.6400,1536
15.6420,2624
15.6440,1328
15.6460,1520
15.6480,1056
15.6500,1360
15.6520,1120
15.6540,1104
15.6560,1024
15.6580,1168
15.6600,2464
15.6620,1952
15.6640,1792
15.6660,7361
15.6680,1968
15.6700,1584
15.6720,1792
15.6740,2048
15.6760,2048
15.6780,1792
15.6800,2112
15.6820,1152
15.6840,1520
15.6860,1280
15.6880,2192
15.6900,4433
15.6920,4561
15.6940,3776
15.6960,1280
15.6980,1584
15.7000,1968
15.7020,1488
15.7040,7041
15.7060,2384
15.7080,2448
15.7100,1488
15.7120,1376
15.7140,1488
15.7160,3504
15.7180,6737
15.7200,2192
15.7220,1504
15.7240,1296
15.7260,1584
15.7280,1872
15.7300,2768
15.7320,1456
15.7340,944
15.7360,2112
15.7380,1472
15.7400,1680
15.7420,1056
15.7440,6241
15.7460,6641
15.7480,2016
15.7500,3600
15.7520,1312
15.7540,1408
15.7560,1184
15.7580,1120
15.7600,1520
15.7620,2432
15.7640,1200
15.7660,1072
15.7680,1424
15.7700,1488
15.7720,1792
15.7740,1328
15.7760,1888
15.7780,1152
15.7800,1360
15.7820,1120
15.7840,1456
15.7860,1600
15.7880,1264
15.7900,1120
15.7920,864
15.7940,1712
15.7960,3136
15.7980,1248
15.8000,3552
15.8020,1456
15.8040,1056
15.8060,1376
15.8080,1440
15.8100,5345
15.8120,6577
15.8140,8113
15.8160,2192
15.8180,1952
15.8200,2384
15.8220,1360
15.8240,1280
15.8260,1248
15.8280,1744
15.8300,1232
15.8320,2144
15.8340,1312
15.8360,7585
15.8380,4433
15.8400,928
15.8420,1760
15.8440,1200
15.8460,1600
15.8480,2832
15.8500,1168
15.8520,1984
15.8540,1936
15.8560,1600
15.8580,1424
15.8600,1328
15.8620,1248
15.8640,1120
15.8660,1504
15.8680,1296
15.8700,1216
15.8720,1456
15.8740,2432
15.8760,1680
15.8780,1728
15.8800,1856
15.8820,1632
15.8840,1424
15.8860,1952
15.8880,1328
15.8900,1328
15.8920,2064
15.8940,1488
15.8960,1328
15.8980,1168
15.9000,1152
15.9020,2704
15.9040,2352
15.9060,1264
15.9080,3552
15.9100,2016
15.9120,2112
15.9140,9666
15.9160,6481
15.9180,1280
15.9200,1536
15.9220,1456
15.9240,1808
15.9260,1248
15.9280,1648
15.9300,2816
15.9320,1952
15.9340,1712
15.9360,1376
15.9380,1536
15.9400,976
15.9420,1152
15.9440,2592
15.9460,1296
15.9480,1408
15.9500,1152
15.9520,1216
15.9540,1488
15.9560,1488
15.9580,1552
15.9600,2688
15.9620,1728
15.9640,1568
15.9660,3792
15.9680,1872
15.9700,1344
15.9720,1584
15.9740,1360
15.9760,1072
15.9780,1712
15.9800,1472
15.9820,896
15.9840,1328
15.9860,1344
15.9880,1424
15.9900,4689
15.9920,3424
15.9940,1392
15.9960,1552
15.9980,1456
16.0000,1712
16.0020,1856
16.0040,1088
16.0060,1584
16.0080,2832
16.0100,1424
16.0120,1424
16.0140,1328
16.0160,1488
16.0180,1056
16.0200,1824
16.0220,1248
16.0240,1312
16.0260,1344
16.0280,1040
16.0300,6545
16.0320,4161
16.0340,1360
16.0360,3200
16.0380,2432
16.0400,1296
16.0420,1088
16.0440,2848
16.0460,1648
16.0480,1440
16.0500,6593
16.0520,2672
16.0540,3280
16.0560,2112
16.0580,6753
16.0600,7009
16.0620,1616
16.0640,2736
16.0660,1824
16.0680,944
16.0700,1440
16.0720,1152
16.0740,1296
16.0760,1056
16.0780,1296
16.0800,1088
16.0820,4657
16.0840,4048
16.0860,1056
16.0880,944
16.0900,1312
16.0920,2096
16.0940,1600
16.0960,1120
16.0980,1376
16.1000,1088
16.1020,2064
16.1040,2144
16.1060,1184
16.1080,2000
16.1100,1968
16.1120,1568
16.1140,2720
16.1160,2352
16.1180,1664
16.1200,2128
16.1220,1360
16.1240,1680
16.1260,4961
16.1280,2240
16.1300,2656
16.1320,1552
16.1340,1856
16.1360,1792
16.1380,1312
16.1400,2544
16.1420,1552
16.1440,1328
16.1460,3680
16.1480,1936
16.1500,1408
16.1520,1072
16.1540,1984
16.1560,2704
16.1580,2384
16.1600,1312
16.1620,5457
16.1640,4337
16.1660,1584
16.1680,3872
16.1700,1280
16.1720,1632
16.1740,3216
16.1760,944
16.1780,1728
16.1800,2080
16.1820,2368
16.1840,3280
16.1860,2064
16.1880,1504
16.1900,2480
16.1920,1504
16.1940,1392
16.1960,1568
16.1980,1296
16.2000,1072
16.2020,4561
16.2040,1472
16.2060,1824
16.2080,8530
16.2100,1024
16.2120,1936
16.2140,1888
16.2160,1568
16.2180,6337
16.2200,2624
16.2220,3296
16.2240,1872
16.2260,2208
16.2280,27686
16.2300,17556
16.2320,10274
16.2340,1568
16.2360,1968
16.2380,1504
16.2400,3504
16.2420,1584
16.2440,1152
16.2460,2464
16.2480,1168
16.2500,1072
16.2520,7153
16.2540,4737
16.2560,5521
16.2580,9154
16.2600,3872
16.2620,3488
16.2640,2752
16.2660,3984
16.2680,2176
16.2700,2336
16.2720,3488
16.2740,4401
16.2760,2016
16.2780,6817
16.2800,3488
16.2820,1280
16.2840,2368
16.2860,1968
16.2880,992
16.2900,3904
16.2920,3152
16.2940,5809
16.2960,2128
16.2980,3232
16.3000,17796
16.3020,2512
16.3040,1712
16.3060,6865
16.3080,1456
16.3100,3104
16.3120,4016
16.3140,2752
16.3160,2720
16.3180,3088
16.3200,1664
16.3220,1584
16.3240,7553
16.3260,1296
16.3280,1792
16.3300,2288
16.3320,7601
16.3340,2528
16.3360,1552
16.3380,3008
16.3400,1472
16.3420,3088
16.3440,1280
16.3460,1824
16.3480,2128
16.3500,12098
16.3520,1760
16.3540,13507
16.3560,3856
16.3580,8177
16.3600,8033
16.3620,2112
16.3640,2368
16.3660,17236
16.3680,1856
16.3700,14915
16.3720,8210
16.3740,15427
16.3760,2704
16.3780,1744
16.3800,7201
16.3820,1376
16.3840,1952
16.3860,2560
16.3880,11906
16.3900,3376
16.3920,9474
16.3940,6145
16.3960,3952
16.3980,6881
16.4000,13859
16.4020,2768
16.4040,3936
16.4060,4321
16.4080,4817
16.4100,6801
16.4120,9026
16.4140,5265
16.4160,4000
16.4180,4113
16.4200,2400
16.4220,2896
16.4240,16644
16.4260,3504
16.4280,13539
16.4300,11602
16.4320,4080
16.4340,1040
16.4360,8177
16.4380,2816
16.4400,5985
16.4420,4545
16.4440,1440
16.4460,3872
16.4480,1872
16.4500,15507
16.4520,13827
16.4540,3488
16.4560,3472
16.4580,4881
16.4600,2592
16.4620,1504
16.4640,15091
16.4660,2144
16.4680,1280
16.4700,1264
16.4720,2256
16.4740,6369
16.4760,4225
16.4780,1760
16.4800,3744
16.4820,3648
16.4840,4113
16.4860,6321
16.4880,1904
16.4900,12899
16.4920,14691
16.4940,3520
16.4960,3584
16.4980,20020
16.5000,9058
16.5020,6737
16.5040,15891
16.5060,13123
16.5080,6945
16.5100,8578
16.5120,4561
16.5140,10818
16.5160,15267
16.5180,8498
16.5200,5841
16.5220,2480
16.5240,10722
16.5260,17444
16.5280,3776
16.5300,11186
16.5320,6977
16.5340,12771
16.5360,7313
16.5380,1632
16.5400,2128
16.5420,10962
16.5440,3376
16.5460,9746
16.5480,3424
16.5500,2304
16.5520,9362
16.5540,1984
16.5560,10578
16.5580,2224
16.5600,4097
16.5620,4993
16.5640,37545
16.5660,26918
16.5680,7617
16.5700,11938
16.5720,23701
16.5740,9506
16.5760,13059
16.5780,3776
16.5800,3632
16.5820,2480
16.5840,1840
16.5860,24485
16.5880,8402
16.5900,2704
16.5920,2016
16.5940,11746
16.5960,1984
16.5980,10066
16.6000,5761
16.6020,6657
16.6040,8786
16.6060,1952
16.6080,19236
16.6100,5393
16.6120,11394
16.6140,4753
16.6160,15795
16.6180,7505
16.6200,1760
16.6220,6193
16.6240,12947
16.6260,8033
16.6280,31575
16.6300,12419
16.6320,2240
16.6340,3216
16.6360,6273
16.6380,6833
16.6400,1760
16.6420,18308
16.6440,1856
16.6460,5729
16.6480,2144
16.6500,6577
16.6520,11474
16.6540,5841
16.6560,3184
16.6580,12066
16.6600,1568
16.6620,25414
16.6640,2336
16.6660,6177
16.6680,2064
16.6700,2128
16.6720,20180
16.6740,41002
16.6760,2656
16.6780,2112
16.6800,5569
16.6820,6017
16.6840,17380
16.6860,4449
16.6880,2000
16.6900,13523
16.6920,26166
16.6940,2192
16.6960,2176
16.6980,11458
16.7000,5521
16.7020,1728
16.7040,6561
16.7060,10642
16.7080,2240
16.7100,2608
16.7120,5025
16.7140,7569
16.7160,5585
16.7180,1936
16.7200,1824
16.7220,13331
16.7240,10018
16.7260,1568
16.7280,1344
16.7300,12419
16.7320,11426
16.7340,5889
16.7360,8177
16.7380,20741
16.7400,3248
16.7420,17540
16.7440,1616
16.7460,15267
16.7480,1840
16.7500,1696
16.7520,19204
16.7540,25398
16.7560,15027
16.7580,42858
16.7600,5265
16.7620,65535
16.7640,23733
16.7660,3856
16.7680,23189
16.7700,18084
16.7720,9794
16.7740,12066
16.7760,5169
16.7780,4577
16.7800,43082
16.7820,3488
16.7840,15043
16.7860,19588
16.7880,9778
16.7900,17972
16.7920,39897
16.7940,4753
16.7960,23061
16.7980,1952
16.8000,9618
16.8020,1616
16.8040,32311
16.8060,21381
16.8080,20132
16.8100,24710
16.8120,23253
16.8140,13987
16.8160,8770
16.8180,17956
16.8200,25430
16.8220,1328
16.8240,3840
16.8260,2784
16.8280,9826
16.8300,10978
16.8320,17748
16.8340,14883
16.8360,23909
16.8380,2608
16.8400,7489
16.8420,1696
16.8440,22597
16.8460,13011
16.8480,11474
16.8500,20629
16.8520,1648
16.8540,17572
16.8560,2160
16.8580,5841
16.8600,12691
16.8620,16388
16.8640,3248
16.8660,1824
16.8680,5889
16.8700,11906
16.8720,3984
16.8740,2256
16.8760,3856
16.8780,9970
16.8800,2064
16.8820,30615
16.8840,10962
16.8860,7377
16.8880,8370
16.8900,10034
16.8920,4273
16.8940,26246
16.8960,26566
16.8980,8466
16.9000,11602
16.9020,2048
16.9040,14851
16.9060,6545
16.9080,30871
16.9100,7265
16.9120,65535
16.9140,3216
16.9160,8626
16.9180,22069
16.9200,22613
16.9220,2800
16.9240,19588
16.9260,4097
16.9280,1616
16.9300,1680
16.9320,3888
16.9340,16948
16.9360,7601
16.9380,5249
16.9400,2432
16.9420,2928
16.9440,14051
16.9460,6177
16.9480,21221
16.9500,14275
16.9520,12050
16.9540,12291
16.9560,2896
16.9580,21765
16.9600,28743
16.9620,7841
16.9640,18532
16.9660,12515
16.9680,8978
16.9700,22853
16.9720,3152
16.9740,15539
16.9760,3472
16.9780,9106
16.9800,22165
16.9820,3232
16.9840,1568
16.9860,2960
16.9880,19540
16.9900,30279
16.9920,4209
16.9940,10786
16.9960,7009
16.9980,8145
17.0000,5329
17.0020,14147
17.0040,4689
17.0060,3344
17.0080,11762
17.0100,7345
17.0120,5905
17.0140,10386
17.0160,3760
17.0180,13987
17.0200,1472
17.0220,13203
17.0240,2880
17.0260,4000
17.0280,1344
17.0300,3296
17.0320,4625
17.0340,17220
17.0360,2400
17.0380,6801
17.0400,8129
17.0420,15875
17.0440,6625
17.0460,11154
17.0480,9794
17.0500,10962
17.0520,7073
17.0540,24934
17.0560,13395
17.0580,3216
17.0600,1504
17.0620,8610
17.0640,6977
17.0660,6065
17.0680,1424
17.0700,11554
17.0720,8530
17.0740,15571
17.0760,2320
17.0780,14659
17.0800,21285
17.0820,7633
17.0840,14531
17.0860,21381
17.0880,24806
17.0900,25686
17.0920,5793
17.0940,13667
17.0960,8914
17.0980,3984
17.1000,3776
17.1020,4369
17.1040,5137
17.1060,22245
17.1080,32343
17.1100,25878
17.1120,17732
17.1140,8866
17.1160,4305
17.1180,25318
17.1200,22789
17.1220,18564
17.1240,1952
17.1260,12691
17.1280,8290
17.1300,20148
17.1320,11954
17.1340,9506
17.1360,11778
17.1380,1296
17.1400,8129
17.1420,17668
17.1440,5585
17.1460,8754
17.1480,12995
17.1500,3024
17.1520,3120
17.1540,18196
17.1560,2656
17.1580,9874
17.1600,3344
17.1620,1552
17.1640,1056
17.1660,15427
17.1680,1824
17.1700,9906
17.1720,2576
17.1740,8754
17.1760,10802
17.1780,2528
17.1800,1952
17.1820,1760
17.1840,21269
17.1860,8258
17.1880,22357
17.1900,8354
17.1920,3760
17.1940,4321
17.1960,1408
17.1980,2304
17.2000,22501
17.2020,4097
17.2040,22085
17.2060,41098
17.2080,14115
17.2100,4577
17.2120,2448
17.2140,1568
17.2160,3328
17.2180,2080
17.2200,14051
17.2220,1936
17.2240,2128
17.2260,24277
17.2280,2464
17.2300,22741
17.2320,12931
17.2340,8322
17.2360,1296
17.2380,2000
17.2400,5569
17.2420,1408
17.2440,4641
17.2460,1808
17.2480,15683
17.2500,3760
17.2520,9474
17.2540,20629
17.2560,4993
17.2580,10770
17.2600,19844
17.2620,3248
17.2640,3664
17.2660,11138
17.2680,2704
17.2700,40601
17.2720,4625
17.2740,12178
17.2760,4321
17.2780,14355
17.2800,6849
17.2820,14339
17.2840,3488
17.2860,11042
17.2880,10962
17.2900,3200
17.2920,6257
17.2940,1312
17.2960,1184
17.2980,4753
17.3000,7249
17.3020,15315
17.3040,1888
17.3060,4881
17.3080,2944
17.3100,18372
17.3120,6417
17.3140,10546
17.3160,1264
17.3180,10898
17.3200,15571
17.3220,19716
17.3240,8177
17.3260,7713
17.3280,10786
17.3300,4129
17.3320,10306
17.3340,21749
17.3360,20565
17.3380,8242
17.3400,21509
17.3420,32824
17.3440,20693
17.3460,11698
17.3480,7121
17.3500,8642
17.3520,2000
17.3540,17556
17.3560,1664
17.3580,10370
17.3600,6065
17.3620,11666
17.3640,15891
17.3660,3616
17.3680,6849
17.3700,1808
17.3720,6033
17.3740,4369
17.3760,8177
17.3780,2720
17.3800,7985
17.3820,7089
17.3840,21157
17.3860,31431
17.3880,21541
17.3900,3216
17.3920,2608
17.3940,11442
17.3960,21221
17.3980,8898
17.4000,12050
17.4020,25126
17.4040,5137
17.4060,2656
17.4080,16275
17.4100,15251
17.4120,2880
17.4140,18244
17.4160,11586
17.4180,21461
17.4200,2240
17.4220,2864
17.4240,7233
17.4260,7937
17.4280,14643
17.4300,2016
17.4320,9042
17.4340,3024
17.4360,14851
17.4380,22101
17.4400,17588
17.4420,7249
17.4440,1344
17.4460,2192
17.4480,12323
17.4500,8866
17.4520,6929
17.4540,2704
17.4560,3248
17.4580,4129
17.4600,2464
17.4620,1824
17.4640,1248
17.4660,2176
17.4680,8065
17.4700,8978
17.4720,6689
17.4740,25030
17.4760,11442
17.4780,9058
17.4800,17892
17.4820,11202
17.4840,8706
17.4860,6177
17.4880,1232
17.4900,1472
17.4920,3104
17.4940,10050
17.4960,3760
17.4980,2960
17.5000,2512
17.5020,3760
17.5040,2512
17.5060,9650
17.5080,14019
17.5100,4593
17.5120,3456
17.5140,8386
17.5160,1488
17.5180,4561
17.5200,3920
17.5220,24261
17.5240,22949
17.5260,2080
17.5280,7409
17.5300,1184
17.5320,5217
17.5340,3216
17.5360,17828
17.5380,6017
17.5400,15619
17.5420,8322
17.5440,5601
17.5460,14019
17.5480,4113
17.5500,4817
17.5520,5681
17.5540,4817
17.5560,26390
17.5580,7937
17.5600,2096
17.5620,18596
17.5640,9010
17.5660,20789
17.5680,5185
17.5700,8161
17.5720,2416
17.5740,4113
17.5760,19364
17.5780,7393
17.5800,13459
17.5820,14707
17.5840,7361
17.5860,8129
17.5880,2784
17.5900,1920
17.5920,2096
17.5940,1792
17.5960,3408
17.5980,13827
17.6000,5201
17.6020,2016
17.6040,6321
17.6060,16371
17.6080,9618
17.6100,1872
17.6120,12178
17.6140,4321
17.6160,20020
17.6180,1520
17.6200,3488
17.6220,10658
17.6240,7873
17.6260,1984
17.6280,9346
17.6300,6753
17.6320,11810
17.6340,28935
17.6360,5265
17.6380,5921
17.6400,8850
17.6420,18052
17.6440,5217
17.6460,16820
17.6480,12755
17.6500,8994
17.6520,7969
17.6540,16964
17.6560,12162
17.6580,4753
17.6600,6449
17.6620,4032
17.6640,5809
17.6660,9282
17.6680,1744
17.6700,12307
17.6720,12050
17.6740,18500
17.6760,2112
17.6780,2336
17.6800,3120
17.6820,10402
17.6840,2096
17.6860,12178
17.6880,2752
17.6900,3616
17.6920,13219
17.6940,11554
17.6960,1680
17.6980,5089
17.7000,1680
17.7020,10418
17.7040,2848
17.7060,4097
17.7080,6353
17.7100,1680
17.7120,9474
17.7140,3536
17.7160,3216
17.7180,1312
17.7200,1792
17.7220,5217
17.7240,2992
17.7260,12178
17.7280,16788
17.7300,9170
17.7320,4032
17.7340,1888
17.7360,1760
17.7380,7681
17.7400,17028
17.7420,6785
17.7440,4497
17.7460,11682
17.7480,7809
17.7500,4273
17.7520,5249
17.7540,10386
17.7560,4385
17.7580,8914
17.7600,1824
17.7620,7377
17.7640,9298
17.7660,4625
17.7680,3472
17.7700,14899
17.7720,5665
17.7740,1584
17.7760,1888
17.7780,2432
17.7800,10034
17.7820,24758
17.7840,2320
17.7860,1808
17.7880,5953
17.7900,3040
17.7920,3504
17.7940,26166
17.7960,10706
17.7980,3136
17.8000,8081
17.8020,18084
17.8040,2800
17.8060,2272
17.8080,4305
17.8100,9234
17.8120,26966
17.8140,4000
17.8160,6833
17.8180,8626
17.8200,5921
17.8220,2976
17.8240,8706
17.8260,2400
17.8280,3024
17.8300,5617
17.8320,21685
17.8340,18500
17.8360,1792
17.8380,47067
17.8400,2240
17.8420,13555
17.8440,1472
17.8460,15075
17.8480,19236
17.8500,1600
17.8520,32103
17.8540,11778
17.8560,1680
17.8580,13923
17.8600,1616
17.8620,11826
17.8640,14883
17.8660,9746
17.8680,5601
17.8700,16035
17.8720,29511
17.8740,2960
17.8760,4016
17.8780,24421
17.8800,14147
17.8820,8049
17.8840,16836
17.8860,5457
17.8880,6657
17.8900,4993
17.8920,8418
17.8940,3664
17.8960,2432
17.8980,6337
17.9000,12002
17.9020,5121
17.9040,4353
17.9060,5441
17.9080,20404
17.9100,2304
17.9120,1456
17.9140,32776
17.9160,3632
17.9180,7185
17.9200,1408
17.9220,3776
17.9240,43114
17.9260,5809
17.9280,28518
17.9300,13395
17.9320,5505
17.9340,14931
17.9360,12178
17.9380,11266
17.9400,5697
17.9420,20965
17.9440,2704
17.9460,3376
17.9480,11330
17.9500,6113
17.9520,25542
17.9540,10130
17.9560,37913
17.9580,14419
17.9600,6753
17.9620,12403
17.9640,2912
17.9660,29607
17.9680,6033
17.9700,5089
17.9720,1536
17.9740,1264
17.9760,6273
17.9780,2976
17.9800,2528
17.9820,9714
17.9840,16692
17.9860,23429
17.9880,15235
17.9900,6417
17.9920,18884
17.9940,16227
17.9960,6097
17.9980,2864
18.0000,3040
18.0020,9538
18.0040,9858
18.0060,42634
18.0080,6961
18.0100,11362
18.0120,6737
18.0140,3824
18.0160,2272
18.0180,13731
18.0200,3920
18.0220,16516
18.0240,7617
18.0260,13891
18.0280,5969
18.0300,11090
18.0320,10018
18.0340,3984
18.0360,12627
18.0380,22837
18.0400,18868
18.0420,17844
18.0440,5409
18.0460,2000
18.0480,14211
18.0500,2944
18.0520,1856
18.0540,1088
18.0560,1280
18.0580,10498
18.0600,8226
18.0620,13107
18.0640,2224
18.0660,5889
18.0680,4801
18.0700,2128
18.0720,25430
18.0740,4689
18.0760,4785
18.0780,3728
18.0800,17636
18.0820,6785
18.0840,8754
18.0860,13667
18.0880,6033
18.0900,8177
18.0920,14531
18.0940,11986
18.0960,8081
18.0980,3536
18.1000,3232
18.1020,2080
18.1040,2144
18.1060,27814
18.1080,1376
18.1100,5857
18.1120,8674
18.1140,1536
18.1160,6961
18.1180,14947
18.1200,1744
18.1220,7521
18.1240,12307
18.1260,2464
18.1280,1552
18.1300,15955
18.1320,1984
18.1340,9538
18.1360,5953
18.1380,8850
18.1400,8658
18.1420,25814
18.1440,51884
18.1460,14979
18.1480,20308
18.1500,34408
18.1520,7617
18.1540,8914
18.1560,34744
18.1580,1504
18.1600,4609
18.1620,3840
18.1640,4401
18.1660,1696
18.1680,16660
18.1700,23605
18.1720,45579
18.1740,22213
18.1760,3392
18.1780,35112
18.1800,7665
18.1820,3904
18.1840,14867
18.1860,5121
18.1880,8177
18.1900,16291
18.1920,13539
18.1940,8402
18.1960,20869
18.1980,6465
18.2000,2128
18.2020,8177
18.2040,3376
18.2060,8722
18.2080,2272
18.2100,2240
18.2120,6945
18.2140,4913
18.2160,9314
18.2180,14595
18.2200,8482
18.2220,14851
18.2240,22549
18.2260,10338
18.2280,2304
18.2300,10818
18.2320,5665
18.2340,3408
18.2360,2096
18.2380,10722
18.2400,3008
18.2420,6321
18.2440,5137
18.2460,2144
18.2480,9762
18.2500,4929
18.2520,20276
18.2540,38137
18.2560,3216
18.2580,13283
18.2600,4064
18.2620,5089
18.2640,2224
18.2660,19172
18.2680,9410
18.2700,13155
18.2720,2560
18.2740,10018
18.2760,16275
18.2780,19524
18.2800,3984
18.2820,5153
18.2840,1168
18.2860,12050
18.2880,1728
18.2900,2624
18.2920,8658
18.2940,2560
18.2960,10946
18.2980,8097
18.3000,5569
18.3020,18980
18.3040,6289
18.3060,23701
18.3080,24069
18.3100,19332
18.3120,7777
18.3140,2096
18.3160,2064
18.3180,19284
18.3200,26774
18.3220,25766
18.3240,5633
18.3260,2832
18.3280,10018
18.3300,6145
18.3320,8113
18.3340,8177
18.3360,7089
18.3380,11106
18.3400,21525
18.3420,16291
18.3440,2304
18.3460,1408
18.3480,8386
18.3500,18372
18.3520,22949
18.3540,10450
18.3560,7601
18.3580,23525
18.3600,18100
18.3620,5057
18.3640,1424
18.3660,17508
18.3680,13059
18.3700,13715
18.3720,3632
18.3740,5089
18.3760,8177
18.3780,8530
18.3800,4513
18.3820,6401
18.3840,13715
18.3860,1376
18.3880,11426
18.3900,18692
18.3920,7617
18.3940,7521
18.3960,12851
18.3980,3280
18.4000,3392
18.4020,11362
18.4040,24774
18.4060,8962
18.4080,9938
18.4100,13315
18.4120,45355
18.4140,47147
18.4160,39641
18.4180,17940
18.4200,18180
18.4220,5969
18.4240,2832
18.4260,3920
18.4280,16259
18.4300,5169
18.4320,5585
18.4340,6609
18.4360,6737
18.4380,7009
18.4400,2688
18.4420,9746
18.4440,13267
18.4460,2128
18.4480,8177
18.4500,7857
18.4520,4241
18.4540,2608
18.4560,21973
18.4580,15907
18.4600,2240
18.4620,10370
18.4640,2112
18.4660,6257
18.4680,17812
18.4700,3632
18.4720,3184
18.4740,1632
18.4760,11410
18.4780,11042
18.4800,15091
18.4820,28807
18.4840,2640
18.4860,23621
18.4880,25430
18.4900,5809
18.4920,41690
18.4940,4273
18.4960,2256
18.4980,3872
18.5000,2272
18.5020,10802
18.5040,9042
18.5060,7585
18.5080,2832
18.5100,18628
18.5120,1840
18.5140,2544
18.5160,8658
18.5180,13875
18.5200,1936
18.5220,15635
18.5240,8258
18.5260,11474
18.5280,17460
18.5300,2912
18.5320,12323
18.5340,7633
18.5360,28951
18.5380,7873
18.5400,3216
18.5420,6801
18.5440,3024
18.5460,2656
18.5480,28166
18.5500,31943
18.5520,2784
18.5540,8802
18.5560,1264
18.5580,16708
18.5600,11346
18.5620,15443
18.5640,14211
18.5660,9154
18.5680,7137
18.5700,1856
18.5720,27942
18.5740,2512
18.5760,3744
18.5780,24726
18.5800,7681
18.5820,2320
18.5840,3760
18.5860,2112
18.5880,7105
18.5900,4545
18.5920,3792
18.5940,1280
18.5960,8177
18.5980,21013
18.6000,18772
18.6020,3024
18.6040,8626
18.6060,4481
18.6080,5377
18.6100,33304
18.6120,31287
18.6140,2560
18.6160,6689
18.6180,3040
18.6200,38185
18.6220,2640
18.6240,1840
18.6260,5377
18.6280,1728
18.6300,4080
18.6320,5249
18.6340,22869
18.6360,9954
18.6380,3712
18.6400,2624
18.6420,2464
18.6440,4369
18.6460,8258
18.6480,4321
18.6500,29847
18.6520,2176
18.6540,19108
18.6560,15251
18.6580,11314
18.6600,4401
18.6620,4817
18.6640,18068
18.6660,1840
18.6680,3024
18.6700,1456
18.6720,1840
18.6740,4561
18.6760,3808
18.6780,1664
18.6800,4593
18.6820,9506
18.6840,3520
18.6860,35496
18.6880,2656
18.6900,3840
18.6920,28246
18.6940,5297
18.6960,43530
18.6980,3584
18.7000,18260
18.7020,5745
18.7040,62943
18.7060,13587
18.7080,4161
18.7100,1872
18.7120,39049
18.7140,6737
18.7160,1888
18.7180,2688
18.7200,14115
18.7220,49964
18.7240,7777
18.7260,14595
18.7280,13507
18.7300,1888
18.7320,6753
18.7340,9970
18.7360,2720
18.7380,16836
18.7400,1904
18.7420,37369
18.7440,9042
18.7460,6865
18.7480,4737
18.7500,34520
18.7520,17092
18.7540,7137
18.7560,12066
18.7580,1280
18.7600,1712
18.7620,6577
18.7640,14291
18.7660,2064
18.7680,6753
18.7700,13395
18.7720,2720
18.7740,2304
18.7760,7713
18.7780,5201
18.7800,4161
18.7820,3664
18.7840,8017
18.7860,5937
18.7880,1888
18.7900,2832
18.7920,32840
18.7940,24533
18.7960,37913
18.7980,22613
18.8000,8850
18.8020,2960
18.8040,28935
18.8060,9394
18.8080,14035
18.8100,18308
18.8120,17796
18.8140,11122
18.8160,4465
18.8180,2400
18.8200,2064
18.8220,6337
18.8240,2176
18.8260,2640
18.8280,5537
18.8300,3008
18.8320,15651
18.8340,7201
18.8360,1312
18.8380,22005
18.8400,11602
18.8420,2336
18.8440,7041
18.8460,4385
18.8480,15731
18.8500,2640
18.8520,7841
18.8540,31255
18.8560,3408
18.8580,32952
18.8600,28759
18.8620,22629
18.8640,1984
18.8660,5041
18.8680,37689
18.8700,18052
18.8720,1744
18.8740,6305
18.8760,21557
18.8780,1680
18.8800,8145
18.8820,11794
18.8840,7617
18.8860,2496
18.8880,2048
18.8900,12627
18.8920,2384
18.8940,18372
18.8960,2848
18.8980,3376
18.9000,10402
18.9020,4673
18.9040,9234
18.9060,4913
18.9080,2320
18.9100,7617
18.9120,10242
18.9140,21925
18.9160,3664
18.9180,1984
18.9200,20501
18.9220,28550
18.9240,24886
18.9260,1920
18.9280,8530
18.9300,24998
18.9320,3168
18.9340,3072
18.9360,1568
18.9380,1600
18.9400,9378
18.9420,22549
18.9440,14067
18.9460,3264
18.9480,13187
18.9500,2592
18.9520,9938
18.9540,2416
18.9560,5825
18.9580,8450
18.9600,8177
18.9620,2048
18.9640,2256
18.9660,4881
18.9680,2368
18.9700,1440
18.9720,14979
18.9740,16612
18.9760,6913
18.9780,29463
18.9800,17284
18.9820,32439
18.9840,34152
18.9860,21957
18.9880,2464
18.9900,5377
18.9920,2128
18.9940,1312
18.9960,13603
18.9980,3408
19.0000,3712
19.0020,4064
19.0040,5393
19.0060,1888
19.0080,1552
19.0100,1296
19.0120,10850
19.0140,3744
19.0160,7793
19.0180,8530
19.0200,16916
19.0220,12787
19.0240,1872
19.0260,7185
19.0280,5665
19.0300,8177
19.0320,16612
19.0340,11554
19.0360,5665
19.0380,6321
19.0400,13107
19.0420,3472
19.0440,2480
19.0460,4705
19.0480,4785
19.0500,20372
19.0520,11874
19.0540,17796
19.0560,4321
19.0580,24565
19.0600,24165
19.0620,3488
19.0640,5985
19.0660,13891
19.0680,17540
19.0700,11698
19.0720,23013
19.0740,10946
19.0760,11026
19.0780,4865
19.0800,9458
19.0820,1456
19.0840,6577
19.0860,5697
19.0880,29639
19.0900,20613
19.0920,30967
19.0940,12242
19.0960,13923
19.0980,14243
19.1000,8498
19.1020,3632
19.1040,1840
19.1060,3344
19.1080,1856
19.1100,32535
19.1120,6529
19.1140,14691
19.1160,2736
19.1180,17236
19.1200,3520
19.1220,1632
19.1240,28935
