Tempo(s),EMG_Value
0.0000,1568
0.0020,720
0.0040,2048
0.0060,1184
0.0080,1088
0.0100,1200
0.0120,1584
0.0140,1872
0.0160,1488
0.0180,1232
0.0200,1728
0.0220,1344
0.0240,1056
0.0260,800
0.0280,912
0.0300,816
0.0320,1264
0.0340,1184
0.0360,1104
0.0380,1024
0.0400,1504
0.0420,1232
0.0440,1408
0.0460,1088
0.0480,1312
0.0500,1552
0.0520,1456
0.0540,2592
0.0560,1152
0.0580,1120
0.0600,1248
0.0620,1200
0.0640,1248
0.0660,1344
0.0680,864
0.0700,1680
0.0720,1024
0.0740,1328
0.0760,1792
0.0780,1024
0.0800,992
0.0820,1808
0.0840,1440
0.0860,784
0.0880,1184
0.0900,1184
0.0920,1200
0.0940,992
0.0960,1232
0.0980,912
0.1000,1104
0.1020,1040
0.1040,1056
0.1060,1152
0.1080,800
0.1100,1232
0.1120,1152
0.1140,1168
0.1160,1584
0.1180,1424
0.1200,848
0.1220,1328
0.1240,1072
0.1260,864
0.1280,1440
0.1300,1360
0.1320,1104
0.1340,1232
0.1360,1600
0.1380,1248
0.1400,1488
0.1420,1504
0.1440,912
0.1460,944
0.1480,1088
0.1500,1168
0.1520,1056
0.1540,1184
0.1560,896
0.1580,1968
0.1600,1488
0.1620,1040
0.1640,2304
0.1660,1872
0.1680,1440
0.1700,1488
0.1720,1168
0.1740,1728
0.1760,1520
0.1780,1200
0.1800,1424
0.1820,1456
0.1840,1072
0.1860,912
0.1880,1280
0.1900,1280
0.1920,848
0.1940,1216
0.1960,1024
0.1980,1408
0.2000,1168
0.2020,896
0.2040,1264
0.2060,928
0.2080,992
0.2100,912
0.2120,1440
0.2140,1808
0.2160,672
0.2180,976
0.2200,1360
0.2220,1504
0.2240,1328
0.2260,1696
0.2280,1312
0.2300,1424
0.2320,1024
0.2340,992
0.2360,1168
0.2380,1216
0.2400,1088
0.2420,1312
0.2440,1488
0.2460,1584
0.2480,1216
0.2500,1488
0.2520,1216
0.2540,992
0.2560,1184
0.2580,1680
0.2600,864
0.2620,832
0.2640,1024
0.2660,1680
0.2680,1536
0.2700,1456
0.2720,1328
0.2740,1088
0.2760,992
0.2780,960
0.2800,1088
0.2820,1472
0.2840,1312
0.2860,1360
0.2880,1280
0.2900,1152
0.2920,1568
0.2940,1312
0.2960,1552
0.2980,1312
0.3000,1328
0.3020,1440
0.3040,1456
0.3060,1536
0.3080,1040
0.3100,1440
0.3120,1296
0.3140,1488
0.3160,1200
0.3180,1056
0.3200,1200
0.3220,1728
0.3240,928
0.3260,1152
0.3280,1328
0.3300,1232
0.3320,2352
0.3340,880
0.3360,1440
0.3380,1200
0.3400,800
0.3420,1408
0.3440,1632
0.3460,1408
0.3480,1664
0.3500,1232
0.3520,896
0.3540,1216
0.3560,928
0.3580,1152
0.3600,1184
0.3620,1376
0.3640,1344
0.3660,1200
0.3680,1024
0.3700,1120
0.3720,1440
0.3740,1456
0.3760,1120
0.3780,1120
0.3800,1872
0.3820,1456
0.3840,1456
0.3860,1056
0.3880,1168
0.3900,1040
0.3920,992
0.3940,1488
0.3960,1168
0.3980,1280
0.4000,992
0.4020,1600
0.4040,1200
0.4060,1104
0.4080,1424
0.4100,1312
0.4120,1840
0.4140,1888
0.4160,1312
0.4180,1456
0.4200,1104
0.4220,1296
0.4240,1296
0.4260,1200
0.4280,1600
0.4300,1888
0.4320,1184
0.4340,896
0.4360,944
0.4380,960
0.4400,1104
0.4420,1168
0.4440,896
0.4460,1088
0.4480,864
0.4500,1632
0.4520,1280
0.4540,1120
0.4560,928
0.4580,1232
0.4600,976
0.4620,1024
0.4640,1344
0.4660,1264
0.4680,1248
0.4700,1024
0.4720,1328
0.4740,1120
0.4760,1040
0.4780,1296
0.4800,1472
0.4820,1248
0.4840,944
0.4860,1296
0.4880,1056
0.4900,1120
0.4920,1024
0.4940,1328
0.4960,960
0.4980,1072
0.5000,1104
0.5020,912
0.5040,1936
0.5060,1376
0.5080,1664
0.5100,880
0.5120,1248
0.5140,1728
0.5160,1216
0.5180,2528
0.5200,2752
0.5220,1760
0.5240,912
0.5260,1680
0.5280,1280
0.5300,1056
0.5320,800
0.5340,1248
0.5360,1424
0.5380,1200
0.5400,1168
0.5420,1040
0.5440,1248
0.5460,1536
0.5480,944
0.5500,1024
0.5520,688
0.5540,1504
0.5560,1360
0.5580,1504
0.5600,1360
0.5620,1616
0.5640,944
0.5660,1216
0.5680,1040
0.5700,1104
0.5720,1152
0.5740,1024
0.5760,848
0.5780,1456
0.5800,1104
0.5820,1424
0.5840,1440
0.5860,1344
0.5880,1120
0.5900,1280
0.5920,1232
0.5940,1728
0.5960,1584
0.5980,1792
0.6000,944
0.6020,1152
0.6040,1456
0.6060,1472
0.6080,1104
0.6100,1504
0.6120,1040
0.6140,1248
0.6160,1056
0.6180,1056
0.6200,1216
0.6220,1600
0.6240,1536
0.6260,1168
0.6280,1072
0.6300,1360
0.6320,1456
0.6340,1120
0.6360,1088
0.6380,1408
0.6400,1280
0.6420,976
0.6440,1280
0.6460,1312
0.6480,1616
0.6500,1344
0.6520,1536
0.6540,1872
0.6560,864
0.6580,1280
0.6600,1104
0.6620,1408
0.6640,1152
0.6660,1584
0.6680,768
0.6700,1600
0.6720,1392
0.6740,1312
0.6760,1856
0.6780,1664
0.6800,1648
0.6820,1152
0.6840,816
0.6860,1376
0.6880,1168
0.6900,1328
0.6920,1056
0.6940,1616
0.6960,848
0.6980,1456
0.7000,912
0.7020,1536
0.7040,2224
0.7060,1920
0.7080,1088
0.7100,1568
0.7120,1184
0.7140,976
0.7160,1568
0.7180,992
0.7200,976
0.7220,1344
0.7240,896
0.7260,1728
0.7280,1312
0.7300,1424
0.7320,768
0.7340,1360
0.7360,1120
0.7380,1248
0.7400,912
0.7420,1536
0.7440,1152
0.7460,1040
0.7480,1792
0.7500,1296
0.7520,1296
0.7540,1232
0.7560,1264
0.7580,1216
0.7600,1248
0.7620,1216
0.7640,1296
0.7660,1280
0.7680,1072
0.7700,1296
0.7720,1040
0.7740,1424
0.7760,1024
0.7780,1104
0.7800,1024
0.7820,1664
0.7840,1504
0.7860,1328
0.7880,1216
0.7900,1488
0.7920,1584
0.7940,1120
0.7960,1456
0.7980,1552
0.8000,960
0.8020,1024
0.8040,1408
0.8060,1232
0.8080,960
0.8100,1184
0.8120,1280
0.8140,2176
0.8160,1808
0.8180,2128
0.8200,1648
0.8220,1744
0.8240,1184
0.8260,1424
0.8280,1200
0.8300,1632
0.8320,1488
0.8340,1312
0.8360,1712
0.8380,1120
0.8400,1440
0.8420,1424
0.8440,1600
0.8460,1376
0.8480,1376
0.8500,1312
0.8520,944
0.8540,992
0.8560,1040
0.8580,1136
0.8600,1104
0.8620,1472
0.8640,1344
0.8660,1328
0.8680,1200
0.8700,1232
0.8720,1120
0.8740,1072
0.8760,1248
0.8780,1248
0.8800,2064
0.8820,864
0.8840,1872
0.8860,1552
0.8880,1040
0.8900,608
0.8920,960
0.8940,1184
0.8960,1184
0.8980,912
0.9000,1072
0.9020,1456
0.9040,1552
0.9060,960
0.9080,1568
0.9100,1072
0.9120,1552
0.9140,1056
0.9160,1616
0.9180,1424
0.9200,1376
0.9220,1552
0.9240,720
0.9260,1264
0.9280,1728
0.9300,1040
0.9320,1552
0.9340,1472
0.9360,1488
0.9380,1152
0.9400,1072
0.9420,1312
0.9440,2912
0.9460,1280
0.9480,2256
0.9500,1360
0.9520,1488
0.9540,1712
0.9560,992
0.9580,1088
0.9600,1472
0.9620,1312
0.9640,1248
0.9660,1456
0.9680,1184
0.9700,960
0.9720,1024
0.9740,1120
0.9760,1456
0.9780,1504
0.9800,1104
0.9820,1280
0.9840,1248
0.9860,1424
0.9880,928
0.9900,1760
0.9920,1216
0.9940,1344
0.9960,1616
0.9980,1488
1.0000,1104
1.0020,2176
1.0040,1200
1.0060,928
1.0080,1296
1.0100,1600
1.0120,1408
1.0140,976
1.0160,1168
1.0180,1200
1.0200,1344
1.0220,1024
1.0240,1760
1.0260,1552
1.0280,1328
1.0300,1184
1.0320,1040
1.0340,992
1.0360,1584
1.0380,1120
1.0400,976
1.0420,1200
1.0440,1152
1.0460,1744
1.0480,1216
1.0500,1600
1.0520,1408
1.0540,704
1.0560,1504
1.0580,992
1.0600,1248
1.0620,1616
1.0640,1984
1.0660,1312
1.0680,1440
1.0700,1072
1.0720,1488
1.0740,1616
1.0760,1488
1.0780,1040
1.0800,928
1.0820,1472
1.0840,1456
1.0860,1536
1.0880,1680
1.0900,1168
1.0920,1200
1.0940,1408
1.0960,2080
1.0980,1376
1.1000,992
1.1020,896
1.1040,1040
1.1060,1744
1.1080,1360
1.1100,992
1.1120,1040
1.1140,1584
1.1160,2096
1.1180,1040
1.1200,880
1.1220,2240
1.1240,1536
1.1260,1552
1.1280,1312
1.1300,1424
1.1320,1840
1.1340,848
1.1360,1424
1.1380,1360
1.1400,1152
1.1420,1360
1.1440,1232
1.1460,1776
1.1480,816
1.1500,1152
1.1520,1344
1.1540,1824
1.1560,976
1.1580,1056
1.1600,1488
1.1620,1152
1.1640,1088
1.1660,1264
1.1680,1200
1.1700,736
1.1720,1120
1.1740,1696
1.1760,1776
1.1780,992
1.1800,1120
1.1820,1520
1.1840,1344
1.1860,960
1.1880,1584
1.1900,1568
1.1920,1552
1.1940,1920
1.1960,1344
1.1980,1568
1.2000,864
1.2020,1440
1.2040,1408
1.2060,1200
1.2080,1712
1.2100,1280
1.2120,800
1.2140,1280
1.2160,976
1.2180,1248
1.2200,1232
1.2220,1392
1.2240,1248
1.2260,1056
1.2280,1760
1.2300,1216
1.2320,1984
1.2340,1232
1.2360,1088
1.2380,992
1.2400,1376
1.2420,1152
1.2440,1344
1.2460,1664
1.2480,1792
1.2500,1344
1.2520,1280
1.2540,1056
1.2560,1168
1.2580,1664
1.2600,1296
1.2620,1456
1.2640,912
1.2660,1248
1.2680,1360
1.2700,1536
1.2720,1456
1.2740,1600
1.2760,1600
1.2780,1360
1.2800,1200
1.2820,1424
1.2840,1280
1.2860,1168
1.2880,1360
1.2900,1056
1.2920,1344
1.2940,1488
1.2960,1216
1.2980,1008
1.3000,1168
1.3020,1168
1.3040,992
1.3060,1328
1.3080,1024
1.3100,1712
1.3120,1056
1.3140,1712
1.3160,1168
1.3180,1536
1.3200,768
1.3220,1216
1.3240,1104
1.3260,2064
1.3280,1376
1.3300,1600
1.3320,992
1.3340,912
1.3360,960
1.3380,960
1.3400,944
1.3420,1168
1.3440,1824
1.3460,1024
1.3480,1568
1.3500,1440
1.3520,1152
1.3540,976
1.3560,1072
1.3580,832
1.3600,864
1.3620,2000
1.3640,1328
1.3660,1152
1.3680,1168
1.3700,1296
1.3720,1440
1.3740,1632
1.3760,1264
1.3780,1152
1.3800,1024
1.3820,976
1.3840,1056
1.3860,1184
1.3880,1360
1.3900,2400
1.3920,1440
1.3940,1296
1.3960,1696
1.3980,1408
1.4000,1696
1.4020,960
1.4040,1808
1.4060,2608
1.4080,1600
1.4100,1472
1.4120,1968
1.4140,1024
1.4160,1040
1.4180,1056
1.4200,1216
1.4220,1568
1.4240,2640
1.4260,1488
1.4280,1184
1.4300,1056
1.4320,2240
1.4340,1984
1.4360,896
1.4380,1056
1.4400,1312
1.4420,2096
1.4440,1168
1.4460,1264
1.4480,1280
1.4500,992
1.4520,928
1.4540,976
1.4560,1808
1.4580,1264
1.4600,1088
1.4620,1056
1.4640,1408
1.4660,1664
1.4680,1248
1.4700,1456
1.4720,1280
1.4740,784
1.4760,1408
1.4780,1120
1.4800,1216
1.4820,1152
1.4840,1120
1.4860,1424
1.4880,1088
1.4900,1072
1.4920,1296
1.4940,1280
1.4960,1440
1.4980,1040
1.5000,1376
1.5020,1168
1.5040,1168
1.5060,992
1.5080,1616
1.5100,1248
1.5120,1760
1.5140,1360
1.5160,1552
1.5180,1680
1.5200,1360
1.5220,1216
1.5240,1936
1.5260,1152
1.5280,1568
1.5300,1392
1.5320,1408
1.5340,1408
1.5360,1424
1.5380,1552
1.5400,1536
1.5420,1344
1.5440,1120
1.5460,1472
1.5480,1616
1.5500,1376
1.5520,1376
1.5540,1024
1.5560,1760
1.5580,912
1.5600,1328
1.5620,1600
1.5640,1872
1.5660,1120
1.5680,1248
1.5700,1072
1.5720,1344
1.5740,1168
1.5760,1280
1.5780,960
1.5800,1104
1.5820,1488
1.5840,1504
1.5860,1360
1.5880,2000
1.5900,1232
1.5920,1264
1.5940,1072
1.5960,1296
1.5980,1568
1.6000,1120
1.6020,1104
1.6040,1568
1.6060,1264
1.6080,1248
1.6100,2256
1.6120,1248
1.6140,1792
1.6160,912
1.6180,1168
1.6200,864
1.6220,1280
1.6240,1328
1.6260,1536
1.6280,832
1.6300,1216
1.6320,1376
1.6340,1424
1.6360,1280
1.6380,1104
1.6400,1264
1.6420,1376
1.6440,1520
1.6460,1264
1.6480,1968
1.6500,1088
1.6520,1424
1.6540,1696
1.6560,1536
1.6580,1232
1.6600,1456
1.6620,1264
1.6640,2352
1.6660,1280
1.6680,992
1.6700,1328
1.6720,1776
1.6740,2240
1.6760,1760
1.6780,1664
1.6800,1552
1.6820,1440
1.6840,2080
1.6860,1408
1.6880,1040
1.6900,1696
1.6920,2096
1.6940,1728
1.6960,1200
1.6980,1040
1.7000,1488
1.7020,1328
1.7040,1376
1.7060,1232
1.7080,960
1.7100,1104
1.7120,1168
1.7140,1344
1.7160,720
1.7180,1344
1.7200,992
1.7220,1088
1.7240,4064
1.7260,2384
1.7280,1280
1.7300,1664
1.7320,1648
1.7340,1120
1.7360,832
1.7380,1408
1.7400,1168
1.7420,1568
1.7440,768
1.7460,1344
1.7480,1424
1.7500,1120
1.7520,928
1.7540,1232
1.7560,1328
1.7580,1536
1.7600,1760
1.7620,1440
1.7640,1248
1.7660,1024
1.7680,1280
1.7700,1760
1.7720,1056
1.7740,1296
1.7760,1456
1.7780,1120
1.7800,1216
1.7820,1360
1.7840,1200
1.7860,1360
1.7880,1360
1.7900,1184
1.7920,1440
1.7940,1280
1.7960,1952
1.7980,1680
1.8000,1088
1.8020,1216
1.8040,1568
1.8060,1488
1.8080,816
1.8100,1248
1.8120,1424
1.8140,1504
1.8160,1152
1.8180,1184
1.8200,1072
1.8220,1088
1.8240,1344
1.8260,912
1.8280,1040
1.8300,1728
1.8320,1616
1.8340,1328
1.8360,1648
1.8380,992
1.8400,1088
1.8420,1280
1.8440,1408
1.8460,1088
1.8480,1120
1.8500,1456
1.8520,1168
1.8540,1184
1.8560,1488
1.8580,1216
1.8600,1248
1.8620,1344
1.8640,1232
1.8660,1280
1.8680,1568
1.8700,992
1.8720,1088
1.8740,1344
1.8760,1488
1.8780,1168
1.8800,1120
1.8820,1408
1.8840,1248
1.8860,1328
1.8880,1280
1.8900,1424
1.8920,1440
1.8940,1248
1.8960,1040
1.8980,832
1.9000,1248
1.9020,1200
1.9040,928
1.9060,1168
1.9080,1360
1.9100,1152
1.9120,944
1.9140,1696
1.9160,1312
1.9180,1216
1.9200,960
1.9220,1584
1.9240,1200
1.9260,1760
1.9280,1168
1.9300,1408
1.9320,1360
1.9340,1680
1.9360,1296
1.9380,1184
1.9400,1232
1.9420,1248
1.9440,1536
1.9460,1472
1.9480,1248
1.9500,1440
1.9520,1120
1.9540,1456
1.9560,1328
1.9580,1600
1.9600,1280
1.9620,1600
1.9640,1376
1.9660,1232
1.9680,944
1.9700,1232
1.9720,1200
1.9740,1408
1.9760,1408
1.9780,1296
1.9800,960
1.9820,1488
1.9840,960
1.9860,1424
1.9880,1072
1.9900,1104
1.9920,1168
1.9940,1072
1.9960,1232
1.9980,1344
2.0000,1264
2.0020,1040
2.0040,1248
2.0060,1088
2.0080,1696
2.0100,896
2.0120,1152
2.0140,944
2.0160,976
2.0180,896
2.0200,1152
2.0220,848
2.0240,1040
2.0260,1408
2.0280,1344
2.0300,1824
2.0320,1040
2.0340,1440
2.0360,1280
2.0380,1632
2.0400,2064
2.0420,1664
2.0440,1136
2.0460,1168
2.0480,1120
2.0500,1440
2.0520,1408
2.0540,976
2.0560,768
2.0580,976
2.0600,1408
2.0620,1120
2.0640,1168
2.0660,1328
2.0680,912
2.0700,1232
2.0720,1344
2.0740,1440
2.0760,1360
2.0780,1824
2.0800,2000
2.0820,1888
2.0840,2816
2.0860,1600
2.0880,1280
2.0900,1184
2.0920,832
2.0940,1184
2.0960,992
2.0980,1280
2.1000,1056
2.1020,1280
2.1040,1456
2.1060,1296
2.1080,1408
2.1100,1920
2.1120,1376
2.1140,1328
2.1160,1584
2.1180,864
2.1200,1104
2.1220,1072
2.1240,1232
2.1260,3200
2.1280,2000
2.1300,1120
2.1320,1568
2.1340,944
2.1360,1328
2.1380,1680
2.1400,1248
2.1420,1280
2.1440,928
2.1460,1344
2.1480,1056
2.1500,992
2.1520,1440
2.1540,944
2.1560,1328
2.1580,1792
2.1600,912
2.1620,1120
2.1640,864
2.1660,1264
2.1680,960
2.1700,1168
2.1720,1600
2.1740,928
2.1760,1344
2.1780,1664
2.1800,1616
2.1820,1536
2.1840,1456
2.1860,1312
2.1880,2176
2.1900,1232
2.1920,704
2.1940,2048
2.1960,1152
2.1980,1104
2.2000,1184
2.2020,1744
2.2040,656
2.2060,1360
2.2080,1264
2.2100,1040
2.2120,1248
2.2140,1536
2.2160,1296
2.2180,848
2.2200,1040
2.2220,1264
2.2240,1216
2.2260,1328
2.2280,816
2.2300,1120
2.2320,1184
2.2340,1184
2.2360,928
2.2380,1376
2.2400,864
2.2420,1168
2.2440,1296
2.2460,1664
2.2480,1248
2.2500,1280
2.2520,1504
2.2540,1248
2.2560,992
2.2580,1040
2.2600,1280
2.2620,1296
2.2640,1200
2.2660,1168
2.2680,800
2.2700,992
2.2720,1440
2.2740,1360
2.2760,1120
2.2780,960
2.2800,1216
2.2820,1600
2.2840,928
2.2860,896
2.2880,800
2.2900,1232
2.2920,1184
2.2940,1040
2.2960,1024
2.2980,1120
2.3000,1488
2.3020,1008
2.3040,1024
2.3060,1232
2.3080,1328
2.3100,1104
2.3120,1216
2.3140,1328
2.3160,1600
2.3180,1312
2.3200,1232
2.3220,992
2.3240,1184
2.3260,1520
2.3280,1536
2.3300,1184
2.3320,1232
2.3340,928
2.3360,800
2.3380,1056
2.3400,1472
2.3420,1072
2.3440,1168
2.3460,1920
2.3480,1296
2.3500,1472
2.3520,944
2.3540,1568
2.3560,1232
2.3580,832
2.3600,1200
2.3620,1056
2.3640,1632
2.3660,1168
2.3680,1184
2.3700,1456
2.3720,928
2.3740,1488
2.3760,1232
2.3780,1216
2.3800,1568
2.3820,1072
2.3840,1408
2.3860,1248
2.3880,1232
2.3900,1488
2.3920,1424
2.3940,1040
2.3960,1184
2.3980,1328
2.4000,1056
2.4020,1184
2.4040,1376
2.4060,1376
2.4080,1168
2.4100,1200
2.4120,1248
2.4140,1552
2.4160,1104
2.4180,1184
2.4200,1296
2.4220,1600
2.4240,1184
2.4260,1440
2.4280,992
2.4300,1040
2.4320,1392
2.4340,960
2.4360,944
2.4380,1328
2.4400,1344
2.4420,1344
2.4440,1728
2.4460,1504
2.4480,1168
2.4500,1472
2.4520,1040
2.4540,1248
2.4560,1440
2.4580,1440
2.4600,1216
2.4620,1664
2.4640,1216
2.4660,1536
2.4680,1904
2.4700,1472
2.4720,1120
2.4740,1184
2.4760,928
2.4780,1344
2.4800,1568
2.4820,1184
2.4840,1056
2.4860,1168
2.4880,1152
2.4900,1056
2.4920,992
2.4940,1136
2.4960,1744
2.4980,1584
2.5000,1008
2.5020,1072
2.5040,992
2.5060,1056
2.5080,1184
2.5100,1216
2.5120,928
2.5140,2736
2.5160,1488
2.5180,1088
2.5200,1312
2.5220,1440
2.5240,1152
2.5260,1232
2.5280,1104
2.5300,1312
2.5320,1184
2.5340,1328
2.5360,1088
2.5380,1024
2.5400,848
2.5420,1248
2.5440,1296
2.5460,1632
2.5480,928
2.5500,1024
2.5520,1152
2.5540,928
2.5560,1328
2.5580,1216
2.5600,1312
2.5620,1232
2.5640,1056
2.5660,1248
2.5680,976
2.5700,1104
2.5720,1088
2.5740,1440
2.5760,1552
2.5780,1072
2.5800,1232
2.5820,1584
2.5840,1312
2.5860,1056
2.5880,976
2.5900,1280
2.5920,1200
2.5940,1216
2.5960,1312
2.5980,880
2.6000,1168
2.6020,1360
2.6040,1056
2.6060,1120
2.6080,1136
2.6100,992
2.6120,1360
2.6140,1216
2.6160,1152
2.6180,1392
2.6200,1264
2.6220,1376
2.6240,1168
2.6260,1232
2.6280,1568
2.6300,1296
2.6320,1408
2.6340,928
2.6360,1232
2.6380,1248
2.6400,1216
2.6420,1840
2.6440,2384
2.6460,1408
2.6480,1392
2.6500,1296
2.6520,1408
2.6540,1216
2.6560,1376
2.6580,1344
2.6600,1840
2.6620,1552
2.6640,1792
2.6660,1360
2.6680,1024
2.6700,1680
2.6720,1312
2.6740,992
2.6760,928
2.6780,1328
2.6800,864
2.6820,992
2.6840,1216
2.6860,976
2.6880,1056
2.6900,1488
2.6920,1328
2.6940,992
2.6960,1616
2.6980,1328
2.7000,1152
2.7020,1296
2.7040,1360
2.7060,1248
2.7080,1104
2.7100,1296
2.7120,1344
2.7140,1840
2.7160,1216
2.7180,1296
2.7200,912
2.7220,1056
2.7240,1424
2.7260,1344
2.7280,1712
2.7300,1712
2.7320,1216
2.7340,1280
2.7360,736
2.7380,1040
2.7400,1168
2.7420,1040
2.7440,1312
2.7460,1200
2.7480,1408
2.7500,1872
2.7520,928
2.7540,1456
2.7560,1376
2.7580,1072
2.7600,1296
2.7620,1968
2.7640,1824
2.7660,1440
2.7680,1072
2.7700,1040
2.7720,1296
2.7740,1136
2.7760,1296
2.7780,1072
2.7800,1824
2.7820,1296
2.7840,1232
2.7860,768
2.7880,2496
2.7900,3408
2.7920,1440
2.7940,800
2.7960,864
2.7980,992
2.8000,1184
2.8020,1584
2.8040,1184
2.8060,1696
2.8080,2320
2.8100,1120
2.8120,1648
2.8140,1360
2.8160,1312
2.8180,1296
2.8200,1552
2.8220,1168
2.8240,1328
2.8260,816
2.8280,1312
2.8300,1104
2.8320,1216
2.8340,1248
2.8360,1344
2.8380,1312
2.8400,1232
2.8420,1216
2.8440,1344
2.8460,1168
2.8480,1296
2.8500,832
2.8520,1056
2.8540,1296
2.8560,912
2.8580,1456
2.8600,1024
2.8620,1152
2.8640,1232
2.8660,1040
2.8680,1344
2.8700,1296
2.8720,864
2.8740,848
2.8760,912
2.8780,1232
2.8800,992
2.8820,1536
2.8840,1024
2.8860,1216
2.8880,1232
2.8900,1296
2.8920,1360
2.8940,1216
2.8960,2096
2.8980,1024
2.9000,1280
2.9020,912
2.9040,1408
2.9060,1264
2.9080,1104
2.9100,1248
2.9120,1344
2.9140,2000
2.9160,1008
2.9180,1312
2.9200,1440
2.9220,960
2.9240,1488
2.9260,1040
2.9280,1312
2.9300,1248
2.9320,928
2.9340,1856
2.9360,1456
2.9380,1024
2.9400,1248
2.9420,1216
2.9440,960
2.9460,1536
2.9480,1024
2.9500,1200
2.9520,1232
2.9540,1296
2.9560,1376
2.9580,1600
2.9600,1328
2.9620,1168
2.9640,1024
2.9660,1408
2.9680,1056
2.9700,928
2.9720,1104
2.9740,1216
2.9760,784
2.9780,1232
2.9800,1040
2.9820,1312
2.9840,1488
2.9860,960
2.9880,1168
2.9900,1328
2.9920,1296
2.9940,1296
2.9960,1376
2.9980,1456
3.0000,1104
3.0020,928
3.0040,1264
3.0060,1232
3.0080,1504
3.0100,976
3.0120,1552
3.0140,1200
3.0160,1328
3.0180,1488
3.0200,1584
3.0220,1040
3.0240,1120
3.0260,1472
3.0280,1584
3.0300,1040
3.0320,1712
3.0340,1248
3.0360,1312
3.0380,1184
3.0400,1472
3.0420,1504
3.0440,1824
3.0460,1552
3.0480,1152
3.0500,1024
3.0520,1424
3.0540,1440
3.0560,1264
3.0580,1680
3.0600,1216
3.0620,1568
3.0640,1232
3.0660,816
3.0680,1216
3.0700,864
3.0720,1552
3.0740,1248
3.0760,1200
3.0780,848
3.0800,1216
3.0820,1152
3.0840,864
3.0860,1248
3.0880,3712
3.0900,1872
3.0920,1248
3.0940,1408
3.0960,1360
3.0980,1552
3.1000,1104
3.1020,1696
3.1040,1248
3.1060,1504
3.1080,1280
3.1100,864
3.1120,896
3.1140,1440
3.1160,1184
3.1180,1200
3.1200,1056
3.1220,1328
3.1240,1328
3.1260,896
3.1280,1456
3.1300,1184
3.1320,1312
3.1340,1264
3.1360,1200
3.1380,976
3.1400,1568
3.1420,1328
3.1440,1280
3.1460,1696
3.1480,1312
3.1500,1120
3.1520,1872
3.1540,1104
3.1560,928
3.1580,1344
3.1600,1168
3.1620,1072
3.1640,1520
3.1660,960
3.1680,832
3.1700,1888
3.1720,1088
3.1740,1600
3.1760,1328
3.1780,1184
3.1800,1152
3.1820,912
3.1840,1744
3.1860,1040
3.1880,1488
3.1900,1024
3.1920,992
3.1940,2096
3.1960,1280
3.1980,1232
3.2000,1216
3.2020,1456
3.2040,1152
3.2060,1200
3.2080,1872
3.2100,1232
3.2120,992
3.2140,1040
3.2160,800
3.2180,1616
3.2200,928
3.2220,1184
3.2240,944
3.2260,1024
3.2280,864
3.2300,1360
3.2320,832
3.2340,912
3.2360,928
3.2380,1504
3.2400,1184
3.2420,1216
3.2440,1104
3.2460,816
3.2480,1088
3.2500,1472
3.2520,1312
3.2540,720
3.2560,1056
3.2580,960
3.2600,1168
3.2620,1104
3.2640,1120
3.2660,1184
3.2680,848
3.2700,944
3.2720,1328
3.2740,1488
3.2760,1344
3.2780,960
3.2800,1728
3.2820,752
3.2840,1280
3.2860,928
3.2880,880
3.2900,1312
3.2920,1584
3.2940,1184
3.2960,1536
3.2980,1072
3.3000,1184
3.3020,944
3.3040,784
3.3060,992
3.3080,1040
3.3100,1104
3.3120,1504
3.3140,1200
3.3160,832
3.3180,1456
3.3200,576
3.3220,1120
3.3240,1104
3.3260,1200
3.3280,1584
3.3300,1232
3.3320,1392
3.3340,1824
3.3360,1184
3.3380,1040
3.3400,1440
3.3420,1696
3.3440,1136
3.3460,1456
3.3480,1280
3.3500,1120
3.3520,2496
3.3540,1664
3.3560,1552
3.3580,1280
3.3600,1072
3.3620,1696
3.3640,1856
3.3660,1696
3.3680,1472
3.3700,1232
3.3720,1088
3.3740,896
3.3760,1248
3.3780,1440
3.3800,1088
3.3820,960
3.3840,768
3.3860,1072
3.3880,1056
3.3900,1328
3.3920,928
3.3940,1360
3.3960,1232
3.3980,1040
3.4000,976
3.4020,1040
3.4040,1824
3.4060,1232
3.4080,1152
3.4100,1440
3.4120,1680
3.4140,1456
3.4160,960
3.4180,2592
3.4200,1712
3.4220,1248
3.4240,576
3.4260,1040
3.4280,1424
3.4300,1248
3.4320,992
3.4340,960
3.4360,1728
3.4380,1152
3.4400,848
3.4420,1456
3.4440,1248
3.4460,976
3.4480,1280
3.4500,1312
3.4520,848
3.4540,848
3.4560,1200
3.4580,1376
3.4600,1344
3.4620,928
3.4640,1040
3.4660,1472
3.4680,1152
3.4700,2048
3.4720,1232
3.4740,1088
3.4760,976
3.4780,2048
3.4800,2400
3.4820,1360
3.4840,1152
3.4860,1024
3.4880,1312
3.4900,944
3.4920,256
3.4940,2576
3.4960,1280
3.4980,1056
3.5000,1248
3.5020,1152
3.5040,1424
3.5060,1232
3.5080,928
3.5100,1744
3.5120,1168
3.5140,1488
3.5160,784
3.5180,1376
3.5200,1184
3.5220,1120
3.5240,800
3.5260,1136
3.5280,1184
3.5300,1056
3.5320,1024
3.5340,1232
3.5360,864
3.5380,928
3.5400,1376
3.5420,1104
3.5440,1168
3.5460,1344
3.5480,976
3.5500,400
3.5520,800
3.5540,1184
3.5560,928
3.5580,1360
3.5600,1200
3.5620,1440
3.5640,1504
3.5660,1296
3.5680,1264
3.5700,1104
3.5720,1376
3.5740,1616
3.5760,1216
3.5780,1088
3.5800,1536
3.5820,1632
3.5840,1552
3.5860,1376
3.5880,1296
3.5900,1360
3.5920,1152
3.5940,1088
3.5960,1568
3.5980,1088
3.6000,1216
3.6020,1680
3.6040,1184
3.6060,1664
3.6080,1168
3.6100,1632
3.6120,1568
3.6140,1680
3.6160,1568
3.6180,1248
3.6200,1392
3.6220,1376
3.6240,1136
3.6260,1456
3.6280,1824
3.6300,1696
3.6320,1680
3.6340,1280
3.6360,1088
3.6380,1504
3.6400,1040
3.6420,1248
3.6440,1936
3.6460,1280
3.6480,1440
3.6500,2128
3.6520,1328
3.6540,2624
3.6560,1248
3.6580,1216
3.6600,1824
3.6620,1856
3.6640,1152
3.6660,960
3.6680,1040
3.6700,1312
3.6720,1184
3.6740,1424
3.6760,1120
3.6780,928
3.6800,2304
3.6820,816
3.6840,1200
3.6860,1152
3.6880,1136
3.6900,848
3.6920,1328
3.6940,864
3.6960,1120
3.6980,1152
3.7000,1056
3.7020,1328
3.7040,912
3.7060,1488
3.7080,1568
3.7100,1216
3.7120,1280
3.7140,1376
3.7160,1488
3.7180,1376
3.7200,928
3.7220,1056
3.7240,1552
3.7260,1280
3.7280,1952
3.7300,1056
3.7320,1008
3.7340,1296
3.7360,1392
3.7380,1296
3.7400,912
3.7420,1104
3.7440,1328
3.7460,2544
3.7480,1440
3.7500,1280
3.7520,1024
3.7540,1424
3.7560,1120
3.7580,976
3.7600,1520
3.7620,1376
3.7640,1264
3.7660,992
3.7680,800
3.7700,1296
3.7720,1424
3.7740,1072
3.7760,1264
3.7780,1280
3.7800,800
3.7820,1200
3.7840,800
3.7860,1024
3.7880,1600
3.7900,1152
3.7920,1104
3.7940,640
3.7960,1344
3.7980,1088
3.8000,1168
3.8020,1136
3.8040,704
3.8060,1344
3.8080,800
3.8100,1552
3.8120,1296
3.8140,1232
3.8160,1376
3.8180,1168
3.8200,1216
3.8220,896
3.8240,1568
3.8260,944
3.8280,1152
3.8300,1088
3.8320,1344
3.8340,1600
3.8360,1104
3.8380,1104
3.8400,944
3.8420,992
3.8440,864
3.8460,1136
3.8480,1120
3.8500,1424
3.8520,1264
3.8540,896
3.8560,1840
3.8580,896
3.8600,2112
3.8620,1536
3.8640,1120
3.8660,960
3.8680,1152
3.8700,2608
3.8720,944
3.8740,1344
3.8760,1232
3.8780,1200
3.8800,1248
3.8820,1568
3.8840,1952
3.8860,1232
3.8880,1056
3.8900,992
3.8920,1088
3.8940,576
3.8960,816
3.8980,736
3.9000,1312
3.9020,1312
3.9040,864
3.9060,1440
3.9080,912
3.9100,1120
3.9120,912
3.9140,1104
3.9160,1568
3.9180,1568
3.9200,1360
3.9220,1424
3.9240,1504
3.9260,992
3.9280,1024
3.9300,1328
3.9320,1088
3.9340,960
3.9360,1072
3.9380,912
3.9400,1680
3.9420,912
3.9440,928
3.9460,1152
3.9480,1168
3.9500,1040
3.9520,928
3.9540,976
3.9560,1024
3.9580,736
3.9600,992
3.9620,1200
3.9640,1168
3.9660,1072
3.9680,1600
3.9700,1216
3.9720,1312
3.9740,1168
3.9760,1152
3.9780,992
3.9800,1232
3.9820,1888
3.9840,736
3.9860,1088
3.9880,1616
3.9900,1600
3.9920,1600
3.9940,1104
3.9960,1200
3.9980,1184
4.0000,1056
4.0020,1056
4.0040,944
4.0060,992
4.0080,1568
4.0100,1184
4.0120,1952
4.0140,1456
4.0160,1072
4.0180,944
4.0200,832
4.0220,1280
4.0240,944
4.0260,1696
4.0280,1504
4.0300,1344
4.0320,1040
4.0340,1408
4.0360,1344
4.0380,1104
4.0400,1184
4.0420,944
4.0440,1440
4.0460,1472
4.0480,944
4.0500,1056
4.0520,1136
4.0540,1376
4.0560,944
4.0580,1280
4.0600,1040
4.0620,1760
4.0640,1328
4.0660,1504
4.0680,1536
4.0700,1584
4.0720,1200
4.0740,1536
4.0760,992
4.0780,1616
4.0800,1424
4.0820,1056
4.0840,1424
4.0860,896
4.0880,1296
4.0900,1584
4.0920,1456
4.0940,864
4.0960,1136
4.0980,816
4.1000,1888
4.1020,1248
4.1040,1040
4.1060,784
4.1080,1488
4.1100,896
4.1120,1456
4.1140,1152
4.1160,960
4.1180,1296
4.1200,992
4.1220,1088
4.1240,1296
4.1260,976
4.1280,960
4.1300,944
4.1320,944
4.1340,1216
4.1360,1392
4.1380,912
4.1400,1152
4.1420,1456
4.1440,816
4.1460,1232
4.1480,1504
4.1500,944
4.1520,1344
4.1540,1200
4.1560,848
4.1580,896
4.1600,1152
4.1620,912
4.1640,1296
4.1660,1296
4.1680,1552
4.1700,1024
4.1720,1088
4.1740,1296
4.1760,832
4.1780,1280
4.1800,1280
4.1820,1296
4.1840,1440
4.1860,1360
4.1880,1616
4.1900,1072
4.1920,1376
4.1940,960
4.1960,1008
4.1980,1344
4.2000,704
4.2020,928
4.2040,1152
4.2060,1408
4.2080,1504
4.2100,1024
4.2120,1104
4.2140,1216
4.2160,1200
4.2180,1216
4.2200,1104
4.2220,1072
4.2240,1216
4.2260,976
4.2280,1088
4.2300,1312
4.2320,928
4.2340,1040
4.2360,976
4.2380,848
4.2400,1632
4.2420,1728
4.2440,1184
4.2460,912
4.2480,1776
4.2500,896
4.2520,976
4.2540,976
4.2560,1440
4.2580,848
4.2600,1360
4.2620,1168
4.2640,1360
4.2660,1216
4.2680,912
4.2700,1856
4.2720,864
4.2740,1488
4.2760,1488
4.2780,1360
4.2800,1072
4.2820,1664
4.2840,1216
4.2860,1072
4.2880,912
4.2900,848
4.2920,1344
4.2940,1152
4.2960,1088
4.2980,1584
4.3000,832
4.3020,1536
4.3040,1792
4.3060,1104
4.3080,896
4.3100,1360
4.3120,960
4.3140,1776
4.3160,1568
4.3180,944
4.3200,1424
4.3220,1168
4.3240,1344
4.3260,1280
4.3280,992
4.3300,1136
4.3320,1200
4.3340,1360
4.3360,1216
4.3380,1120
4.3400,832
4.3420,928
4.3440,1088
4.3460,1184
4.3480,1360
4.3500,1136
4.3520,736
4.3540,1280
4.3560,1360
4.3580,944
4.3600,944
4.3620,1136
4.3640,1312
4.3660,1280
4.3680,1296
4.3700,1344
4.3720,1296
4.3740,1472
4.3760,1312
4.3780,1120
4.3800,1424
4.3820,1520
4.3840,1088
4.3860,1408
4.3880,1456
4.3900,1056
4.3920,976
4.3940,1072
4.3960,1456
4.3980,1360
4.4000,1184
4.4020,1344
4.4040,2192
4.4060,944
4.4080,992
4.4100,1632
4.4120,1520
4.4140,1104
4.4160,1424
4.4180,1312
4.4200,800
4.4220,1072
4.4240,1312
4.4260,1408
4.4280,1488
4.4300,1488
4.4320,1472
4.4340,1168
4.4360,1296
4.4380,992
4.4400,1248
4.4420,800
4.4440,1600
4.4460,1344
4.4480,1312
4.4500,1168
4.4520,1616
4.4540,1104
4.4560,1280
4.4580,1744
4.4600,1600
4.4620,1120
4.4640,1216
4.4660,992
4.4680,1104
4.4700,1440
4.4720,2192
4.4740,1024
4.4760,944
4.4780,1184
4.4800,1824
4.4820,1152
4.4840,768
4.4860,1040
4.4880,1328
4.4900,928
4.4920,1056
4.4940,1216
4.4960,1232
4.4980,1248
4.5000,1344
4.5020,1424
4.5040,816
4.5060,1008
4.5080,960
4.5100,960
4.5120,1104
4.5140,1424
4.5160,1168
4.5180,1088
4.5200,1248
4.5220,1040
4.5240,1232
4.5260,1104
4.5280,1648
4.5300,1456
4.5320,1056
4.5340,1568
4.5360,1024
4.5380,976
4.5400,1472
4.5420,1504
4.5440,1072
4.5460,1008
4.5480,1232
4.5500,1200
4.5520,1104
4.5540,1104
4.5560,1152
4.5580,1488
4.5600,896
4.5620,1152
4.5640,2336
4.5660,1376
4.5680,1328
4.5700,1152
4.5720,944
4.5740,1184
4.5760,848
4.5780,1728
4.5800,1344
4.5820,1568
4.5840,1328
4.5860,1328
4.5880,1264
4.5900,1504
4.5920,1472
4.5940,1376
4.5960,1408
4.5980,1584
4.6000,1152
4.6020,1184
4.6040,1056
4.6060,1424
4.6080,1312
4.6100,1360
4.6120,944
4.6140,1328
4.6160,1280
4.6180,1264
4.6200,1312
4.6220,1616
4.6240,1040
4.6260,1088
4.6280,1600
4.6300,1232
4.6320,1248
4.6340,1024
4.6360,880
4.6380,912
4.6400,1440
4.6420,1056
4.6440,1008
4.6460,1248
4.6480,896
4.6500,1216
4.6520,1264
4.6540,1216
4.6560,1872
4.6580,1312
4.6600,1360
4.6620,1456
4.6640,944
4.6660,1040
4.6680,432
4.6700,1056
4.6720,1424
4.6740,1456
4.6760,720
4.6780,1344
4.6800,1152
4.6820,3200
4.6840,2480
4.6860,1824
4.6880,1008
4.6900,1296
4.6920,1104
4.6940,1504
4.6960,1056
4.6980,1312
4.7000,1088
4.7020,944
4.7040,864
4.7060,736
4.7080,1120
4.7100,1088
4.7120,1152
4.7140,1312
4.7160,1040
4.7180,1296
4.7200,1504
4.7220,1376
4.7240,944
4.7260,1216
4.7280,1168
4.7300,1792
4.7320,1280
4.7340,1424
4.7360,1440
4.7380,1424
4.7400,1408
4.7420,1424
4.7440,1664
4.7460,1264
4.7480,2304
4.7500,1280
4.7520,928
4.7540,1312
4.7560,1360
4.7580,1552
4.7600,1200
4.7620,1312
4.7640,1152
4.7660,1344
4.7680,1216
4.7700,1120
4.7720,1552
4.7740,1536
4.7760,1568
4.7780,1248
4.7800,1728
4.7820,1168
4.7840,1072
4.7860,1440
4.7880,976
4.7900,1200
4.7920,1344
4.7940,1552
4.7960,960
4.7980,1360
4.8000,1456
4.8020,1216
4.8040,1072
4.8060,1232
4.8080,1552
4.8100,1120
4.8120,976
4.8140,1232
4.8160,1024
4.8180,1200
4.8200,1040
4.8220,1440
4.8240,1440
4.8260,1168
4.8280,1664
4.8300,1248
4.8320,1584
4.8340,1200
4.8360,976
4.8380,1280
4.8400,1296
4.8420,1264
4.8440,1840
4.8460,1184
4.8480,1104
4.8500,912
4.8520,1152
4.8540,1728
4.8560,1536
4.8580,1472
4.8600,1152
4.8620,1328
4.8640,1120
4.8660,1616
4.8680,1216
4.8700,1040
4.8720,960
4.8740,848
4.8760,1472
4.8780,1056
4.8800,1088
4.8820,1424
4.8840,1536
4.8860,1360
4.8880,1744
4.8900,1104
4.8920,1088
4.8940,1552
4.8960,1472
4.8980,1600
4.9000,1296
4.9020,784
4.9040,960
4.9060,1280
4.9080,992
4.9100,1360
4.9120,1200
4.9140,1152
4.9160,1280
4.9180,1040
4.9200,1536
4.9220,1360
4.9240,1104
4.9260,1328
4.9280,2352
4.9300,1376
4.9320,1200
4.9340,1616
4.9360,976
4.9380,1568
4.9400,2176
4.9420,1584
4.9440,1520
4.9460,1296
4.9480,1248
4.9500,1072
4.9520,1280
4.9540,1488
4.9560,1232
4.9580,1152
4.9600,1728
4.9620,1440
4.9640,1760
4.9660,912
4.9680,1344
4.9700,1168
4.9720,1680
4.9740,1472
4.9760,2672
4.9780,1088
4.9800,1616
4.9820,1456
4.9840,1344
4.9860,1392
4.9880,1456
4.9900,1824
4.9920,1536
4.9940,1808
4.9960,1200
4.9980,992
5.0000,1472
5.0020,928
5.0040,1872
5.0060,1088
5.0080,1056
5.0100,1744
5.0120,1616
5.0140,1888
5.0160,1920
5.0180,1312
5.0200,1200
5.0220,1680
5.0240,1536
5.0260,1632
5.0280,1728
5.0300,1104
5.0320,1216
5.0340,1520
5.0360,1776
5.0380,1408
5.0400,1216
5.0420,2752
5.0440,1344
5.0460,1968
5.0480,1104
5.0500,1344
5.0520,1408
5.0540,1200
5.0560,1568
5.0580,1264
5.0600,1568
5.0620,1360
5.0640,944
5.0660,1408
5.0680,1072
5.0700,1280
5.0720,1152
5.0740,1616
5.0760,1872
5.0780,1376
5.0800,1520
5.0820,1424
5.0840,1488
5.0860,992
5.0880,1264
5.0900,1104
5.0920,1552
5.0940,992
5.0960,960
5.0980,1840
5.1000,1312
5.1020,880
5.1040,1504
5.1060,1536
5.1080,1296
5.1100,1280
5.1120,1136
5.1140,992
5.1160,1344
5.1180,1120
5.1200,1440
5.1220,1552
5.1240,1488
5.1260,1600
5.1280,944
5.1300,1616
5.1320,1024
5.1340,1616
5.1360,992
5.1380,1472
5.1400,960
5.1420,896
5.1440,2576
5.1460,896
5.1480,1104
5.1500,1168
5.1520,1584
5.1540,1088
5.1560,944
5.1580,1344
5.1600,1056
5.1620,1648
5.1640,1376
5.1660,1056
5.1680,864
5.1700,944
5.1720,1408
5.1740,1216
5.1760,1232
5.1780,912
5.1800,2048
5.1820,1376
5.1840,960
5.1860,1200
5.1880,1248
5.1900,1280
5.1920,1056
5.1940,1472
5.1960,1296
5.1980,1504
5.2000,1024
5.2020,1216
5.2040,1600
5.2060,1216
5.2080,1344
5.2100,1376
5.2120,1280
5.2140,1584
5.2160,1616
5.2180,848
5.2200,944
5.2220,1344
5.2240,1584
5.2260,1056
5.2280,2064
5.2300,1248
5.2320,1024
5.2340,1360
5.2360,2256
5.2380,1808
5.2400,992
5.2420,1152
5.2440,960
5.2460,1488
5.2480,992
5.2500,1440
5.2520,1264
5.2540,1488
5.2560,1696
5.2580,1328
5.2600,992
5.2620,1184
5.2640,1328
5.2660,1456
5.2680,1408
5.2700,1488
5.2720,1040
5.2740,2096
5.2760,1216
5.2780,2112
5.2800,912
5.2820,976
5.2840,1312
5.2860,960
5.2880,1488
5.2900,1536
5.2920,1488
5.2940,1344
5.2960,1184
5.2980,1088
5.3000,992
5.3020,1120
5.3040,960
5.3060,1552
5.3080,864
5.3100,1760
5.3120,736
5.3140,1616
5.3160,1552
5.3180,1360
5.3200,912
5.3220,1184
5.3240,2128
5.3260,1168
5.3280,1776
5.3300,1440
5.3320,1232
5.3340,1728
5.3360,1040
5.3380,1488
5.3400,736
5.3420,1856
5.3440,1360
5.3460,1440
5.3480,1680
5.3500,1024
5.3520,1280
5.3540,1312
5.3560,1280
5.3580,1040
5.3600,1616
5.3620,1568
5.3640,928
5.3660,1616
5.3680,1072
5.3700,1472
5.3720,1072
5.3740,1040
5.3760,1216
5.3780,1376
5.3800,1296
5.3820,1088
5.3840,1360
5.3860,1568
5.3880,1152
5.3900,1408
5.3920,1600
5.3940,1264
5.3960,1424
5.3980,1584
5.4000,1072
5.4020,1408
5.4040,1088
5.4060,1424
5.4080,1280
5.4100,1344
5.4120,2080
5.4140,1552
5.4160,1248
5.4180,1472
5.4200,1056
5.4220,1280
5.4240,1040
5.4260,1248
5.4280,1328
5.4300,1312
5.4320,1648
5.4340,1072
5.4360,1552
5.4380,1600
5.4400,1888
5.4420,1376
5.4440,1472
5.4460,1552
5.4480,976
5.4500,896
5.4520,1440
5.4540,1680
5.4560,1312
5.4580,1680
5.4600,1344
5.4620,1360
5.4640,1168
5.4660,1168
5.4680,1200
5.4700,2512
5.4720,1536
5.4740,1408
5.4760,1168
5.4780,1296
5.4800,1104
5.4820,1296
5.4840,880
5.4860,1152
5.4880,992
5.4900,1088
5.4920,1856
5.4940,1152
5.4960,1296
5.4980,1216
5.5000,1360
5.5020,1584
5.5040,1216
5.5060,1312
5.5080,1104
5.5100,1600
5.5120,800
5.5140,1072
5.5160,1248
5.5180,1616
5.5200,1072
5.5220,1616
5.5240,752
5.5260,1472
5.5280,1888
5.5300,1488
5.5320,1488
5.5340,1344
5.5360,1232
5.5380,976
5.5400,1088
5.5420,1184
5.5440,1280
5.5460,1344
5.5480,1680
5.5500,1168
5.5520,1200
5.5540,912
5.5560,1152
5.5580,1680
5.5600,1536
5.5620,1344
5.5640,1120
5.5660,1568
5.5680,1472
5.5700,1760
5.5720,1456
5.5740,1424
5.5760,2048
5.5780,1536
5.5800,1552
5.5820,1808
5.5840,1504
5.5860,960
5.5880,1568
5.5900,1168
5.5920,1504
5.5940,1168
5.5960,976
5.5980,1248
5.6000,1920
5.6020,1152
5.6040,1456
5.6060,1056
5.6080,1088
5.6100,912
5.6120,1232
5.6140,816
5.6160,928
5.6180,960
5.6200,3328
5.6220,2368
5.6240,1072
5.6260,1744
5.6280,1248
5.6300,1856
5.6320,1328
5.6340,1088
5.6360,1232
5.6380,1344
5.6400,976
5.6420,1136
5.6440,1808
5.6460,1376
5.6480,1792
5.6500,816
5.6520,896
5.6540,1152
5.6560,1632
5.6580,1296
5.6600,1184
5.6620,1504
5.6640,1040
5.6660,1104
5.6680,1152
5.6700,1712
5.6720,1296
5.6740,1280
5.6760,1200
5.6780,1216
5.6800,1296
5.6820,1216
5.6840,1744
5.6860,1168
5.6880,1504
5.6900,1456
5.6920,1408
5.6940,1328
5.6960,1568
5.6980,1040
5.7000,1296
5.7020,1536
5.7040,1488
5.7060,1760
5.7080,1024
5.7100,1344
5.7120,1568
5.7140,1104
5.7160,1104
5.7180,1376
5.7200,960
5.7220,1104
5.7240,1456
5.7260,1472
5.7280,1600
5.7300,1072
5.7320,912
5.7340,1216
5.7360,1344
5.7380,1200
5.7400,1456
5.7420,1472
5.7440,1504
5.7460,1184
5.7480,1072
5.7500,1552
5.7520,1488
5.7540,1376
5.7560,1344
5.7580,1264
5.7600,1248
5.7620,1328
5.7640,1376
5.7660,1408
5.7680,1440
5.7700,1280
5.7720,1104
5.7740,1424
5.7760,1952
5.7780,1104
5.7800,1056
5.7820,1200
5.7840,1408
5.7860,1184
5.7880,1616
5.7900,1360
5.7920,1808
5.7940,1760
5.7960,1360
5.7980,1360
5.8000,1504
5.8020,1616
5.8040,1104
5.8060,1184
5.8080,1408
5.8100,1456
5.8120,1424
5.8140,1488
5.8160,1552
5.8180,1120
5.8200,1056
5.8220,1536
5.8240,1344
5.8260,960
5.8280,1264
5.8300,1728
5.8320,1456
5.8340,1408
5.8360,1328
5.8380,1344
5.8400,1584
5.8420,912
5.8440,1760
5.8460,1024
5.8480,1504
5.8500,992
5.8520,896
5.8540,1312
5.8560,928
5.8580,864
5.8600,1456
5.8620,1808
5.8640,1200
5.8660,1344
5.8680,1472
5.8700,976
5.8720,1328
5.8740,1248
5.8760,1040
5.8780,1312
5.8800,1344
5.8820,1072
5.8840,1424
5.8860,1536
5.8880,1360
5.8900,1024
5.8920,1184
5.8940,1072
5.8960,2224
5.8980,1296
5.9000,1296
5.9020,1568
5.9040,1408
5.9060,1472
5.9080,1216
5.9100,1728
5.9120,1408
5.9140,1456
5.9160,1568
5.9180,1536
5.9200,3808
5.9220,1376
5.9240,1488
5.9260,1424
5.9280,1184
5.9300,1504
5.9320,896
5.9340,1616
5.9360,1952
5.9380,1232
5.9400,1360
5.9420,1168
5.9440,1200
5.9460,1584
5.9480,1600
5.9500,1360
5.9520,1184
5.9540,1552
5.9560,1104
5.9580,1152
5.9600,1344
5.9620,1296
5.9640,1344
5.9660,1200
5.9680,1360
5.9700,1984
5.9720,1920
5.9740,1312
5.9760,1456
5.9780,1104
5.9800,1408
5.9820,1568
5.9840,1280
5.9860,1312
5.9880,1152
5.9900,1488
5.9920,1712
5.9940,1488
5.9960,2480
5.9980,1312
6.0000,1472
6.0020,1536
6.0040,1232
6.0060,2256
6.0080,784
6.0100,1216
6.0120,1584
6.0140,1712
6.0160,1360
6.0180,2208
6.0200,1328
6.0220,1600
6.0240,1056
6.0260,976
6.0280,1040
6.0300,1296
6.0320,1680
6.0340,928
6.0360,2096
6.0380,4977
6.0400,2272
6.0420,1088
6.0440,1056
6.0460,1504
6.0480,2064
6.0500,1712
6.0520,1376
6.0540,1168
6.0560,1664
6.0580,1184
6.0600,1888
6.0620,1520
6.0640,3600
6.0660,1488
6.0680,1104
6.0700,3040
6.0720,1632
6.0740,1184
6.0760,848
6.0780,1584
6.0800,1168
6.0820,1536
6.0840,4321
6.0860,2176
6.0880,2080
6.0900,5201
6.0920,7217
6.0940,2352
6.0960,848
6.0980,2528
6.1000,1376
6.1020,4561
6.1040,1520
6.1060,1552
6.1080,2304
6.1100,1312
6.1120,1312
6.1140,1616
6.1160,1552
6.1180,1216
6.1200,1296
6.1220,3280
6.1240,1488
6.1260,1376
6.1280,1888
6.1300,1472
6.1320,1280
6.1340,3600
6.1360,1344
6.1380,1504
6.1400,1312
6.1420,1696
6.1440,832
6.1460,1568
6.1480,2960
6.1500,7761
6.1520,1552
6.1540,1328
6.1560,2320
6.1580,1040
6.1600,1648
6.1620,1296
6.1640,1408
6.1660,2240
6.1680,2512
6.1700,1744
6.1720,2288
6.1740,1456
6.1760,6993
6.1780,1424
6.1800,2720
6.1820,1744
6.1840,2400
6.1860,2816
6.1880,6785
6.1900,1936
6.1920,1072
6.1940,1488
6.1960,1616
6.1980,1312
6.2000,2640
6.2020,1696
6.2040,1072
6.2060,4177
6.2080,5665
6.2100,2224
6.2120,1424
6.2140,2048
6.2160,4529
6.2180,4032
6.2200,1936
6.2220,3920
6.2240,2368
6.2260,2176
6.2280,8322
6.2300,2736
6.2320,1280
6.2340,1360
6.2360,1968
6.2380,3840
6.2400,4545
6.2420,9762
6.2440,5265
6.2460,2048
6.2480,2752
6.2500,1744
6.2520,1616
6.2540,2080
6.2560,1872
6.2580,2448
6.2600,2304
6.2620,6977
6.2640,4417
6.2660,9314
6.2680,7057
6.2700,2512
6.2720,16404
6.2740,4769
6.2760,2464
6.2780,1888
6.2800,12307
6.2820,2512
6.2840,1632
6.2860,1280
6.2880,2464
6.2900,3808
6.2920,10594
6.2940,10002
6.2960,10754
6.2980,11106
6.3000,6801
6.3020,2608
6.3040,2400
6.3060,1568
6.3080,2272
6.3100,1760
6.3120,4545
6.3140,8626
6.3160,1968
6.3180,7473
6.3200,8290
6.3220,8578
6.3240,3760
6.3260,3328
6.3280,5057
6.3300,6465
6.3320,1744
6.3340,6353
6.3360,8754
6.3380,4337
6.3400,1936
6.3420,4161
6.3440,14979
6.3460,3840
6.3480,5617
6.3500,3344
6.3520,4529
6.3540,13619
6.3560,3424
6.3580,4032
6.3600,2640
6.3620,3168
6.3640,3536
6.3660,1296
6.3680,6689
6.3700,7137
6.3720,11826
6.3740,2800
6.3760,9506
6.3780,10034
6.3800,9986
6.3820,4833
6.3840,7169
6.3860,15507
6.3880,2128
6.3900,7985
6.3920,2432
6.3940,3040
6.3960,3248
6.3980,2528
6.4000,17412
6.4020,10818
6.4040,10178
6.4060,15203
6.4080,2336
6.4100,16836
6.4120,10066
6.4140,2976
6.4160,15843
6.4180,1760
6.4200,9730
6.4220,3216
6.4240,1760
6.4260,2496
6.4280,4993
6.4300,1856
6.4320,6145
6.4340,8097
6.4360,10114
6.4380,2384
6.4400,10162
6.4420,7553
6.4440,5937
6.4460,17092
6.4480,2384
6.4500,6897
6.4520,19060
6.4540,3632
6.4560,9154
6.4580,1440
6.4600,9730
6.4620,1408
6.4640,1456
6.4660,2544
6.4680,15107
6.4700,3232
6.4720,2176
6.4740,17684
6.4760,5169
6.4780,2000
6.4800,2944
6.4820,5521
6.4840,2400
6.4860,3984
6.4880,3536
6.4900,6401
6.4920,5633
6.4940,9794
6.4960,4801
6.4980,5873
6.5000,20052
6.5020,5473
6.5040,3232
6.5060,3424
6.5080,1616
6.5100,3472
6.5120,1888
6.5140,1888
6.5160,1536
6.5180,4145
6.5200,2640
6.5220,11218
6.5240,6321
6.5260,6593
6.5280,15587
6.5300,14243
6.5320,8706
6.5340,2272
6.5360,1872
6.5380,15507
6.5400,4080
6.5420,1984
6.5440,1616
6.5460,1920
6.5480,1216
6.5500,17780
6.5520,13059
6.5540,13715
6.5560,6897
6.5580,4641
6.5600,3360
6.5620,3408
6.5640,1920
6.5660,2976
6.5680,2368
6.5700,4641
6.5720,5377
6.5740,20837
6.5760,2048
6.5780,3136
6.5800,7201
6.5820,2400
6.5840,4929
6.5860,8370
6.5880,3504
6.5900,9330
6.5920,11666
6.5940,4497
6.5960,6705
6.5980,6609
6.6000,7153
6.6020,2256
6.6040,2256
6.6060,3296
6.6080,2464
6.6100,2576
6.6120,1616
6.6140,1584
6.6160,4993
6.6180,1936
6.6200,1440
6.6220,2304
6.6240,2240
6.6260,2000
6.6280,2608
6.6300,1824
6.6320,1680
6.6340,3504
6.6360,2480
6.6380,3056
6.6400,14723
6.6420,1936
6.6440,6705
6.6460,4097
6.6480,4913
6.6500,2048
6.6520,2336
6.6540,2272
6.6560,5889
6.6580,14947
6.6600,11138
6.6620,1680
6.6640,1792
6.6660,1920
6.6680,2048
6.6700,14547
6.6720,1600
6.6740,26438
6.6760,1856
6.6780,1424
6.6800,3072
6.6820,5009
6.6840,4289
6.6860,7745
6.6880,4753
6.6900,7457
6.6920,22693
6.6940,37465
6.6960,2304
6.6980,17892
6.7000,2336
6.7020,5393
6.7040,8274
6.7060,5201
6.7080,2944
6.7100,3856
6.7120,2688
6.7140,8418
6.7160,3312
6.7180,5137
6.7200,1472
6.7220,3088
6.7240,19524
6.7260,8450
6.7280,2272
6.7300,14083
6.7320,2608
6.7340,26566
6.7360,2224
6.7380,2560
6.7400,14771
6.7420,2384
6.7440,11810
6.7460,1680
6.7480,4769
6.7500,10098
6.7520,6913
6.7540,2304
6.7560,1808
6.7580,12963
6.7600,7249
6.7620,3104
6.7640,12883
6.7660,27958
6.7680,13347
6.7700,3168
6.7720,18116
6.7740,17476
6.7760,6529
6.7780,5809
6.7800,5569
6.7820,30183
6.7840,6545
6.7860,14547
6.7880,9698
6.7900,3936
6.7920,5489
6.7940,2480
6.7960,1728
6.7980,16548
6.8000,20036
6.8020,4417
6.8040,13091
6.8060,2624
6.8080,5953
6.8100,14931
6.8120,12242
6.8140,15683
6.8160,2224
6.8180,4032
6.8200,10242
6.8220,12979
6.8240,2304
6.8260,13747
6.8280,2816
6.8300,1472
6.8320,3488
6.8340,5025
6.8360,7281
6.8380,3664
6.8400,4801
6.8420,8930
6.8440,8482
6.8460,8594
6.8480,15267
6.8500,1936
6.8520,13683
6.8540,24838
6.8560,2960
6.8580,3216
6.8600,1312
6.8620,5969
6.8640,22453
6.8660,24565
6.8680,2960
6.8700,9602
6.8720,5425
6.8740,1856
6.8760,2240
6.8780,5457
6.8800,2384
6.8820,2096
6.8840,10706
6.8860,8578
6.8880,3680
6.8900,4225
6.8920,13379
6.8940,7649
6.8960,5665
6.8980,9490
6.9000,2256
6.9020,6641
6.9040,15411
6.9060,12226
6.9080,2432
6.9100,1632
6.9120,9058
6.9140,3056
6.9160,11922
6.9180,2608
6.9200,8802
6.9220,2880
6.9240,3520
6.9260,24229
6.9280,14707
6.9300,2592
6.9320,3504
6.9340,12483
6.9360,7777
6.9380,1632
6.9400,1440
6.9420,1328
6.9440,3872
6.9460,3232
6.9480,2000
6.9500,2240
6.9520,15955
6.9540,2304
6.9560,2832
6.9580,4241
6.9600,1424
6.9620,2864
6.9640,1856
6.9660,3872
6.9680,11026
6.9700,11202
6.9720,11170
6.9740,5553
6.9760,12274
6.9780,1728
6.9800,3344
6.9820,7681
6.9840,7169
6.9860,1536
6.9880,2720
6.9900,7121
6.9920,6609
6.9940,21173
6.9960,5137
6.9980,2224
7.0000,6337
7.0020,23045
7.0040,21253
7.0060,9698
7.0080,2048
7.0100,22613
7.0120,2000
7.0140,3904
7.0160,4577
7.0180,15587
7.0200,21957
7.0220,7249
7.0240,6273
7.0260,11602
7.0280,4897
7.0300,15059
7.0320,14595
7.0340,3808
7.0360,9490
7.0380,15267
7.0400,11170
7.0420,1552
7.0440,1728
7.0460,3568
7.0480,1504
7.0500,1664
7.0520,1744
7.0540,13875
7.0560,4177
7.0580,14419
7.0600,10754
7.0620,6209
7.0640,3104
7.0660,28118
7.0680,19492
7.0700,2032
7.0720,1920
7.0740,1328
7.0760,16067
7.0780,1360
7.0800,5873
7.0820,6561
7.0840,2528
7.0860,20052
7.0880,3456
7.0900,6705
7.0920,3616
7.0940,4305
7.0960,4032
7.0980,1760
7.1000,2176
7.1020,11218
7.1040,16788
7.1060,4433
7.1080,4753
7.1100,2960
7.1120,5809
7.1140,1440
7.1160,7553
7.1180,2464
7.1200,9186
7.1220,7073
7.1240,2512
7.1260,3200
7.1280,1696
7.1300,3232
7.1320,7985
7.1340,2224
7.1360,2624
7.1380,10306
7.1400,2400
7.1420,6033
7.1440,3584
7.1460,1872
7.1480,1248
7.1500,2016
7.1520,2832
7.1540,2896
7.1560,3088
7.1580,2976
7.1600,1376
7.1620,2320
7.1640,6849
7.1660,2400
7.1680,12307
7.1700,6801
7.1720,5665
7.1740,4753
7.1760,8418
7.1780,4080
7.1800,1632
7.1820,10418
7.1840,7537
7.1860,9186
7.1880,13987
7.1900,18132
7.1920,1488
7.1940,1424
7.1960,5009
7.1980,2256
7.2000,3088
7.2020,14611
7.2040,1888
7.2060,16323
7.2080,2432
7.2100,10210
7.2120,34152
7.2140,5089
7.2160,13971
7.2180,2080
7.2200,1488
7.2220,19540
7.2240,9954
7.2260,5425
7.2280,2320
7.2300,8946
7.2320,7249
7.2340,4241
7.2360,18964
7.2380,9602
7.2400,8274
7.2420,4177
7.2440,17972
7.2460,10338
7.2480,4913
7.2500,9906
7.2520,7681
7.2540,10946
7.2560,11826
7.2580,5601
7.2600,7297
7.2620,8177
7.2640,1600
7.2660,9730
7.2680,4561
7.2700,17524
7.2720,15507
7.2740,4433
7.2760,15843
7.2780,17492
7.2800,4737
7.2820,1792
7.2840,12403
7.2860,18404
7.2880,10722
7.2900,6273
7.2920,4609
7.2940,8129
7.2960,8177
7.2980,5569
7.3000,12066
7.3020,4449
7.3040,2320
7.3060,5985
7.3080,7041
7.3100,11362
7.3120,4833
7.3140,5985
7.3160,5201
7.3180,2064
7.3200,11218
7.3220,8850
7.3240,13971
7.3260,2096
7.3280,2192
7.3300,7249
7.3320,7777
7.3340,23509
7.3360,6033
7.3380,5329
7.3400,2256
7.3420,4097
7.3440,3136
7.3460,1968
7.3480,5409
7.3500,4193
7.3520,3024
7.3540,12867
7.3560,6737
7.3580,6705
7.3600,6993
7.3620,5377
7.3640,34056
7.3660,6049
7.3680,9730
7.3700,3040
7.3720,2224
7.3740,3728
7.3760,1280
7.3780,2256
7.3800,1968
7.3820,1984
7.3840,3328
7.3860,5457
7.3880,2832
7.3900,6977
7.3920,4337
7.3940,7761
7.3960,6897
7.3980,9394
7.4000,10914
7.4020,12002
7.4040,16067
7.4060,9602
7.4080,17188
7.4100,6561
7.4120,1856
7.4140,1632
7.4160,20372
7.4180,15459
7.4200,22341
7.4220,1552
7.4240,6385
7.4260,7249
7.4280,27078
7.4300,9858
7.4320,10034
7.4340,10274
7.4360,3296
7.4380,9634
7.4400,1984
7.4420,6097
7.4440,17156
7.4460,7601
7.4480,4080
7.4500,1712
7.4520,4913
7.4540,4113
7.4560,13091
7.4580,2208
7.4600,5985
7.4620,4321
7.4640,3248
7.4660,2160
7.4680,2592
7.4700,8097
7.4720,2880
7.4740,7441
7.4760,15315
7.4780,1744
7.4800,2944
7.4820,1984
7.4840,3008
7.4860,9970
7.4880,5249
7.4900,4321
7.4920,5777
7.4940,8514
7.4960,12947
7.4980,4993
7.5000,2096
7.5020,3824
7.5040,1872
7.5060,3120
7.5080,2176
7.5100,4577
7.5120,4993
7.5140,15811
7.5160,14483
7.5180,4032
7.5200,12771
7.5220,2016
7.5240,2688
7.5260,1920
7.5280,7681
7.5300,4529
7.5320,13219
7.5340,3728
7.5360,2880
7.5380,1552
7.5400,1808
7.5420,2352
7.5440,2560
7.5460,5153
7.5480,3216
7.5500,2432
7.5520,6401
7.5540,2000
7.5560,1696
7.5580,1328
7.5600,8081
7.5620,23733
7.5640,9234
7.5660,3056
7.5680,15267
7.5700,15299
7.5720,1584
7.5740,4881
7.5760,1968
7.5780,1296
7.5800,3040
7.5820,4321
7.5840,4913
7.5860,4225
7.5880,4385
7.5900,9170
7.5920,19620
7.5940,26246
7.5960,15539
7.5980,6049
7.6000,8450
7.6020,6689
7.6040,4177
7.6060,8578
7.6080,16163
7.6100,1856
7.6120,1824
7.6140,2848
7.6160,4369
7.6180,2704
7.6200,2512
7.6220,25606
7.6240,6529
7.6260,2496
7.6280,8834
7.6300,24565
7.6320,11602
7.6340,17060
7.6360,1872
7.6380,4689
7.6400,16051
7.6420,4273
7.6440,4497
7.6460,12162
7.6480,12691
7.6500,22757
7.6520,25510
7.6540,9810
7.6560,12274
7.6580,2160
7.6600,19268
7.6620,26118
7.6640,6417
7.6660,1616
7.6680,10290
7.6700,3600
7.6720,2848
7.6740,25350
7.6760,6065
7.6780,3616
7.6800,1824
7.6820,24565
7.6840,3568
7.6860,19684
7.6880,1712
7.6900,14115
7.6920,13075
7.6940,10018
7.6960,3040
7.6980,1824
7.7000,16404
7.7020,18020
7.7040,2176
7.7060,16147
7.7080,3904
7.7100,4769
7.7120,1776
7.7140,2464
7.7160,6705
7.7180,5473
7.7200,3056
7.7220,18004
7.7240,31719
7.7260,9138
7.7280,1952
7.7300,2640
7.7320,4000
7.7340,2032
7.7360,4753
7.7380,6657
7.7400,13859
7.7420,7089
7.7440,12499
7.7460,3728
7.7480,3152
7.7500,2128
7.7520,12851
7.7540,2880
7.7560,2528
7.7580,7697
7.7600,6065
7.7620,2736
7.7640,12355
7.7660,4241
7.7680,1520
7.7700,6321
7.7720,22869
7.7740,3744
7.7760,3888
7.7780,1808
7.7800,6561
7.7820,17764
7.7840,34584
7.7860,5249
7.7880,8242
7.7900,22421
7.7920,9474
7.7940,1296
7.7960,11714
7.7980,3008
7.8000,7201
7.8020,6273
7.8040,3728
7.8060,3712
7.8080,4801
7.8100,16772
7.8120,4433
7.8140,8177
7.8160,9506
7.8180,4369
7.8200,6673
7.8220,2368
7.8240,6081
7.8260,2272
7.8280,2960
7.8300,1488
7.8320,2688
7.8340,3424
7.8360,1440
7.8380,2432
7.8400,1520
7.8420,13107
7.8440,1808
7.8460,11026
7.8480,5473
7.8500,6993
7.8520,5857
7.8540,2048
7.8560,16436
7.8580,1792
7.8600,12611
7.8620,5009
7.8640,7553
7.8660,1456
7.8680,12323
7.8700,7505
7.8720,4529
7.8740,1632
7.8760,3040
7.8780,24614
7.8800,6241
7.8820,2176
7.8840,1552
7.8860,9154
7.8880,4032
7.8900,7857
7.8920,3072
7.8940,1024
7.8960,5553
7.8980,3728
7.9000,8706
7.9020,7361
7.9040,2704
7.9060,9570
7.9080,1440
7.9100,12691
7.9120,9474
7.9140,2512
7.9160,2912
7.9180,11042
7.9200,2768
7.9220,1744
7.9240,11554
7.9260,3520
7.9280,13827
7.9300,19988
7.9320,3552
7.9340,8738
7.9360,13123
7.9380,9362
7.9400,3200
7.9420,3664
7.9440,4657
7.9460,1616
7.9480,15939
7.9500,6433
7.9520,11458
7.9540,5953
7.9560,1600
7.9580,9490
7.9600,1488
7.9620,2096
7.9640,1696
7.9660,3392
7.9680,1296
7.9700,8898
7.9720,1760
7.9740,6785
7.9760,17508
7.9780,8658
7.9800,4433
7.9820,1424
7.9840,2144
7.9860,1536
7.9880,4305
7.9900,11506
7.9920,1712
7.9940,5697
7.9960,6721
7.9980,6417
8.0000,2816
8.0020,1776
8.0040,1600
8.0060,1280
8.0080,4080
8.0100,1440
8.0120,2720
8.0140,1488
8.0160,1808
8.0180,2192
8.0200,2096
8.0220,6833
8.0240,2128
8.0260,6657
8.0280,6161
8.0300,2896
8.0320,4849
8.0340,9922
8.0360,7329
8.0380,13763
8.0400,1728
8.0420,7009
8.0440,16339
8.0460,4593
8.0480,1040
8.0500,24181
8.0520,4064
8.0540,5009
8.0560,7617
8.0580,4641
8.0600,4673
8.0620,8113
8.0640,2320
8.0660,2224
8.0680,1760
8.0700,10322
8.0720,7041
8.0740,6065
8.0760,1728
8.0780,6289
8.0800,4401
8.0820,18324
8.0840,19476
8.0860,7393
8.0880,1856
8.0900,10322
8.0920,8850
8.0940,9602
8.0960,18036
8.0980,10050
8.1000,3360
8.1020,4129
8.1040,11554
8.1060,6737
8.1080,17380
8.1100,11042
8.1120,4385
8.1140,1776
8.1160,6529
8.1180,11986
8.1200,1920
8.1220,29367
8.1240,1792
8.1260,1936
8.1280,14899
8.1300,5505
8.1320,2224
8.1340,5713
8.1360,1856
8.1380,8866
8.1400,8129
8.1420,2560
8.1440,11746
8.1460,2656
8.1480,2464
8.1500,2208
8.1520,10290
8.1540,11634
8.1560,1600
8.1580,3296
8.1600,5153
8.1620,4833
8.1640,1808
8.1660,2144
8.1680,4497
8.1700,15411
8.1720,12178
8.1740,1808
8.1760,3856
8.1780,10370
8.1800,16788
8.1820,19284
8.1840,8850
8.1860,3984
8.1880,1568
8.1900,4513
8.1920,5713
8.1940,8866
8.1960,12098
8.1980,2944
8.2000,14067
8.2020,1408
8.2040,2144
8.2060,1984
8.2080,1552
8.2100,2480
8.2120,1872
8.2140,10514
8.2160,14147
8.2180,15555
8.2200,3296
8.2220,5297
8.2240,1408
8.2260,2080
8.2280,7377
8.2300,18724
8.2320,5137
8.2340,2576
8.2360,11906
8.2380,12739
8.2400,2832
8.2420,1744
8.2440,14083
8.2460,21861
8.2480,9138
8.2500,1904
8.2520,13571
8.2540,5297
8.2560,6225
8.2580,2000
8.2600,11330
8.2620,2240
8.2640,11474
8.2660,6417
8.2680,5809
8.2700,6449
8.2720,1536
8.2740,2512
8.2760,4481
8.2780,16772
8.2800,8434
8.2820,1568
8.2840,1360
8.2860,3552
8.2880,4689
8.2900,3136
8.2920,1552
8.2940,8466
8.2960,2224
8.2980,18884
8.3000,12371
8.3020,3344
8.3040,6481
8.3060,3408
8.3080,8242
8.3100,2640
8.3120,2096
8.3140,3232
8.3160,6353
8.3180,10978
8.3200,3184
8.3220,2448
8.3240,3024
8.3260,2496
8.3280,1728
8.3300,5953
8.3320,8017
8.3340,2592
8.3360,5681
8.3380,2400
8.3400,2272
8.3420,1648
8.3440,10098
8.3460,10162
8.3480,3360
8.3500,15587
8.3520,4881
8.3540,1664
8.3560,1536
8.3580,2912
8.3600,3424
8.3620,5681
8.3640,4353
8.3660,14355
8.3680,9234
8.3700,9394
8.3720,9218
8.3740,1456
8.3760,11250
8.3780,17108
8.3800,12499
8.3820,2592
8.3840,6689
8.3860,4032
8.3880,19556
8.3900,7105
8.3920,9634
8.3940,1728
8.3960,2608
8.3980,11746
8.4000,9474
8.4020,3392
8.4040,8418
8.4060,12595
8.4080,1536
8.4100,7713
8.4120,13139
8.4140,4465
8.4160,3504
8.4180,14707
8.4200,10338
8.4220,2960
8.4240,17444
8.4260,5377
8.4280,10050
8.4300,1792
8.4320,17860
8.4340,2048
8.4360,1312
8.4380,12979
8.4400,8226
8.4420,1712
8.4440,3152
8.4460,2944
8.4480,4513
8.4500,16836
8.4520,10930
8.4540,5825
8.4560,2336
8.4580,8962
8.4600,3232
8.4620,31623
8.4640,2048
8.4660,7841
8.4680,1904
8.4700,1712
8.4720,1712
8.4740,12098
8.4760,1744
8.4780,6801
8.4800,2704
8.4820,1264
8.4840,22293
8.4860,14387
8.4880,3840
8.4900,14499
8.4920,3792
8.4940,8161
8.4960,11234
8.4980,2048
8.5000,8113
8.5020,2208
8.5040,8129
8.5060,5953
8.5080,13763
8.5100,4145
8.5120,6193
8.5140,6721
8.5160,12691
8.5180,8226
8.5200,1296
8.5220,5041
8.5240,4016
8.5260,2976
8.5280,1248
8.5300,10850
8.5320,5473
8.5340,1456
8.5360,3840
8.5380,10194
8.5400,2224
8.5420,5297
8.5440,1424
8.5460,2496
8.5480,16404
8.5500,1872
8.5520,4129
8.5540,15699
8.5560,24565
8.5580,41898
8.5600,17124
8.5620,15395
8.5640,2000
8.5660,1312
8.5680,1936
8.5700,5793
8.5720,3152
8.5740,28054
8.5760,5681
8.5780,5825
8.5800,4032
8.5820,9154
8.5840,21477
8.5860,2640
8.5880,2656
8.5900,2896
8.5920,3216
8.5940,3040
8.5960,6705
8.5980,9538
8.6000,16916
8.6020,4193
8.6040,4801
8.6060,2048
8.6080,21749
8.6100,9634
8.6120,3088
8.6140,8530
8.6160,3264
8.6180,1920
8.6200,5905
8.6220,4705
8.6240,14563
8.6260,12675
8.6280,9250
8.6300,2128
8.6320,2256
8.6340,9186
8.6360,1616
8.6380,2144
8.6400,6881
8.6420,14275
8.6440,10386
8.6460,3744
8.6480,1888
8.6500,1936
8.6520,20997
8.6540,11154
8.6560,2032
8.6580,1200
8.6600,12403
8.6620,4305
8.6640,6401
8.6660,3424
8.6680,9890
8.6700,3696
8.6720,1680
8.6740,8226
8.6760,5249
8.6780,3472
8.6800,1440
8.6820,2448
8.6840,2000
8.6860,17316
8.6880,16003
8.6900,23125
8.6920,6945
8.6940,9362
8.6960,3152
8.6980,2896
8.7000,4577
8.7020,2816
8.7040,4689
8.7060,1968
8.7080,4385
8.7100,2864
8.7120,2752
8.7140,14531
8.7160,14371
8.7180,5217
8.7200,6001
8.7220,8402
8.7240,2944
8.7260,4225
8.7280,6049
8.7300,18068
8.7320,35352
8.7340,12210
8.7360,3600
8.7380,1232
8.7400,3632
8.7420,1744
8.7440,2448
8.7460,11842
8.7480,2016
8.7500,4897
8.7520,7777
8.7540,5313
8.7560,2368
8.7580,44490
8.7600,1648
8.7620,7873
8.7640,2304
8.7660,9378
8.7680,4929
8.7700,3408
8.7720,2352
8.7740,1520
8.7760,6657
8.7780,7105
8.7800,8898
8.7820,13667
8.7840,3920
8.7860,5297
8.7880,4769
8.7900,3808
8.7920,16660
8.7940,3456
8.7960,2208
8.7980,10466
8.8000,3776
8.8020,15011
8.8040,7761
8.8060,3040
8.8080,7889
8.8100,1632
8.8120,2848
8.8140,4305
8.8160,9362
8.8180,1600
8.8200,6481
8.8220,3280
8.8240,1888
8.8260,2576
8.8280,4097
8.8300,2336
8.8320,14851
8.8340,1376
8.8360,3648
8.8380,5553
8.8400,5313
8.8420,10786
8.8440,7889
8.8460,13523
8.8480,1248
8.8500,2448
8.8520,9794
8.8540,17380
8.8560,13123
8.8580,6593
8.8600,5169
8.8620,1088
8.8640,1888
8.8660,5425
8.8680,6241
8.8700,1552
8.8720,1952
8.8740,4817
8.8760,16676
8.8780,15683
8.8800,21733
8.8820,2320
8.8840,8962
8.8860,8434
8.8880,1696
8.8900,3008
8.8920,9410
8.8940,1152
8.8960,10978
8.8980,5089
8.9000,6033
8.9020,2896
8.9040,14931
8.9060,3344
8.9080,2304
8.9100,4737
8.9120,7553
8.9140,2352
8.9160,7713
8.9180,2448
8.9200,4609
8.9220,2608
8.9240,1696
8.9260,7121
8.9280,11746
8.9300,1744
8.9320,2352
8.9340,3072
8.9360,2432
8.9380,6049
8.9400,3184
8.9420,9874
8.9440,4609
8.9460,18132
8.9480,4241
8.9500,14691
8.9520,2064
8.9540,11314
8.9560,13395
8.9580,12579
8.9600,5265
8.9620,3216
8.9640,1456
8.9660,5761
8.9680,2160
8.9700,11602
8.9720,9554
8.9740,8354
8.9760,1600
8.9780,4145
8.9800,6625
8.9820,5265
8.9840,1936
8.9860,1712
8.9880,2336
8.9900,2192
8.9920,3664
8.9940,3328
8.9960,4817
8.9980,9138
9.0000,17940
9.0020,20693
9.0040,1344
9.0060,9778
9.0080,4000
9.0100,2480
9.0120,15123
9.0140,2368
9.0160,3904
9.0180,8882
9.0200,2992
9.0220,1200
9.0240,13763
9.0260,15299
9.0280,1888
9.0300,7137
9.0320,5713
9.0340,4945
9.0360,19492
9.0380,2704
9.0400,3344
9.0420,14403
9.0440,5057
9.0460,1280
9.0480,3040
9.0500,10946
9.0520,1616
9.0540,25366
9.0560,2608
9.0580,4897
9.0600,8786
9.0620,3872
9.0640,2640
9.0660,2416
9.0680,5089
9.0700,1664
9.0720,2560
9.0740,5281
9.0760,4609
9.0780,10962
9.0800,1552
9.0820,17332
9.0840,2048
9.0860,8177
9.0880,2752
9.0900,2688
9.0920,2592
9.0940,11058
9.0960,11922
9.0980,1664
9.1000,12611
9.1020,13235
9.1040,13011
9.1060,2512
9.1080,2992
9.1100,1296
9.1120,10834
9.1140,17284
9.1160,12611
9.1180,7105
9.1200,15299
9.1220,10146
9.1240,8994
9.1260,21813
9.1280,6785
9.1300,1456
9.1320,17460
9.1340,1664
9.1360,5265
9.1380,6289
9.1400,2112
9.1420,2208
9.1440,5809
9.1460,2352
9.1480,5041
9.1500,21045
9.1520,2224
9.1540,1328
9.1560,2752
9.1580,4449
9.1600,2384
9.1620,10130
9.1640,6721
9.1660,10578
9.1680,14387
9.1700,5729
9.1720,2496
9.1740,12355
9.1760,16804
9.1780,14515
9.1800,2848
9.1820,1872
9.1840,1232
9.1860,2432
9.1880,3680
9.1900,8610
9.1920,10130
9.1940,12451
9.1960,1760
9.1980,24710
9.2000,3520
9.2020,16644
9.2040,13779
9.2060,7697
9.2080,6529
9.2100,8674
9.2120,5601
9.2140,3008
9.2160,1472
9.2180,7377
9.2200,3744
9.2220,3296
9.2240,1536
9.2260,7329
9.2280,1808
9.2300,2320
9.2320,1360
9.2340,17204
9.2360,9522
9.2380,7201
9.2400,2048
9.2420,3152
9.2440,4177
9.2460,1936
9.2480,1584
9.2500,1824
9.2520,1808
9.2540,8498
9.2560,3600
9.2580,2080
9.2600,10402
9.2620,1616
9.2640,2560
9.2660,1344
9.2680,1376
9.2700,3984
9.2720,5249
9.2740,6657
9.2760,1664
9.2780,6689
9.2800,5297
9.2820,1840
9.2840,7585
9.2860,2320
9.2880,12371
9.2900,13139
9.2920,2960
9.2940,4833
9.2960,1520
9.2980,1936
9.3000,5345
9.3020,2928
9.3040,7441
9.3060,6657
9.3080,3424
9.3100,3936
9.3120,6305
9.3140,1312
9.3160,3248
9.3180,2176
9.3200,9554
9.3220,1776
9.3240,11090
9.3260,3600
9.3280,10722
9.3300,8177
9.3320,4225
9.3340,1920
9.3360,2368
9.3380,2800
9.3400,3760
9.3420,2640
9.3440,1872
9.3460,11602
9.3480,13043
9.3500,23621
9.3520,7729
9.3540,9682
9.3560,1744
9.3580,5857
9.3600,3296
9.3620,4625
9.3640,2448
9.3660,1584
9.3680,4097
9.3700,6049
9.3720,3776
9.3740,3328
9.3760,11826
9.3780,7377
9.3800,5825
9.3820,2640
9.3840,2752
9.3860,7201
9.3880,3264
9.3900,4064
9.3920,6593
9.3940,18004
9.3960,4833
9.3980,36856
9.4000,1248
9.4020,14387
9.4040,4657
9.4060,2528
9.4080,4048
9.4100,4913
9.4120,13107
9.4140,5425
9.4160,2016
9.4180,5793
9.4200,19284
9.4220,1968
9.4240,4433
9.4260,1696
9.4280,3344
9.4300,11074
9.4320,14179
9.4340,4305
9.4360,6913
9.4380,12435
9.4400,1984
9.4420,4129
9.4440,4849
9.4460,5681
9.4480,14595
9.4500,15075
9.4520,3392
9.4540,8850
9.4560,9106
9.4580,10914
9.4600,1808
9.4620,3936
9.4640,2960
9.4660,8177
9.4680,3216
9.4700,1792
9.4720,8177
9.4740,3280
9.4760,3616
9.4780,4801
9.4800,5057
9.4820,2880
9.4840,2960
9.4860,3360
9.4880,3600
9.4900,13747
9.4920,3168
9.4940,11586
9.4960,13667
9.4980,2480
9.5000,4289
9.5020,3312
9.5040,2480
9.5060,7345
9.5080,9554
9.5100,4609
9.5120,10498
9.5140,2320
9.5160,1312
9.5180,2736
9.5200,2832
9.5220,4305
9.5240,6929
9.5260,5441
9.5280,1808
9.5300,16580
9.5320,2480
9.5340,4465
9.5360,25238
9.5380,13571
9.5400,6609
9.5420,17684
9.5440,13107
9.5460,5153
9.5480,10802
9.5500,2048
9.5520,12659
9.5540,13315
9.5560,20581
9.5580,12739
9.5600,7009
9.5620,8001
9.5640,6817
9.5660,2240
9.5680,10546
9.5700,14835
9.5720,3744
9.5740,1408
9.5760,1680
9.5780,13347
9.5800,12787
9.5820,2688
9.5840,1760
9.5860,1280
9.5880,8450
9.5900,13155
9.5920,3664
9.5940,5825
9.5960,1728
9.5980,5073
9.6000,3392
9.6020,2336
9.6040,9298
9.6060,3808
9.6080,1936
9.6100,1344
9.6120,12803
9.6140,11042
9.6160,1632
9.6180,9714
9.6200,2576
9.6220,18132
9.6240,9554
9.6260,6225
9.6280,10578
9.6300,3872
9.6320,2864
9.6340,2272
9.6360,5409
9.6380,1872
9.6400,2208
9.6420,7009
9.6440,9634
9.6460,7073
9.6480,2784
9.6500,5169
9.6520,7809
9.6540,18868
9.6560,13843
9.6580,13987
9.6600,3104
9.6620,2288
9.6640,16516
9.6660,1328
9.6680,17732
9.6700,8754
9.6720,2752
9.6740,12995
9.6760,7057
9.6780,2496
9.6800,9490
9.6820,5313
9.6840,16131
9.6860,3632
9.6880,10626
9.6900,1696
9.6920,15843
9.6940,2064
9.6960,6817
9.6980,3504
9.7000,11938
9.7020,6849
9.7040,4177
9.7060,3312
9.7080,13699
9.7100,6481
9.7120,3344
9.7140,10162
9.7160,19844
9.7180,13443
9.7200,1168
9.7220,1440
9.7240,3936
9.7260,11154
9.7280,3520
9.7300,2064
9.7320,5873
9.7340,8081
9.7360,8322
9.7380,2896
9.7400,11666
9.7420,18772
9.7440,3904
9.7460,4913
9.7480,8450
9.7500,5569
9.7520,1984
9.7540,1504
9.7560,1760
9.7580,1968
9.7600,10658
9.7620,6065
9.7640,2752
9.7660,5025
9.7680,6993
9.7700,1408
9.7720,2208
9.7740,10898
9.7760,9698
9.7780,11106
9.7800,6097
9.7820,2080
9.7840,2512
9.7860,22645
9.7880,8274
9.7900,12995
9.7920,16115
9.7940,3552
9.7960,19092
9.7980,2480
9.8000,9298
9.8020,1536
9.8040,6241
9.8060,2592
9.8080,4769
9.8100,2112
9.8120,13331
9.8140,2208
9.8160,17108
9.8180,4881
9.8200,4513
9.8220,6977
9.8240,7649
9.8260,16644
9.8280,3520
9.8300,23861
9.8320,4305
9.8340,6913
9.8360,28310
9.8380,1632
9.8400,14211
9.8420,1488
9.8440,4241
9.8460,3712
9.8480,10306
9.8500,14003
9.8520,3344
9.8540,4177
9.8560,5201
9.8580,2080
9.8600,2656
9.8620,3264
9.8640,2800
9.8660,9922
9.8680,10626
9.8700,4048
9.8720,3248
9.8740,7729
9.8760,1664
9.8780,7249
9.8800,4577
9.8820,2912
9.8840,18180
9.8860,24053
9.8880,4273
9.8900,7713
9.8920,4705
9.8940,22069
9.8960,17956
9.8980,11458
9.9000,2064
9.9020,1568
9.9040,5409
9.9060,5793
9.9080,5249
9.9100,3216
9.9120,6321
9.9140,17172
9.9160,10818
9.9180,5969
9.9200,7681
9.9220,8145
9.9240,1616
9.9260,5489
9.9280,6561
9.9300,11042
9.9320,4849
9.9340,2816
9.9360,16452
9.9380,9426
9.9400,17332
9.9420,2304
9.9440,32792
9.9460,4561
9.9480,7089
9.9500,17156
9.9520,1920
9.9540,3232
9.9560,11186
9.9580,10114
9.9600,12547
9.9620,20677
9.9640,2192
9.9660,6929
9.9680,7137
9.9700,2560
9.9720,5921
9.9740,4753
9.9760,5009
9.9780,2208
9.9800,5169
9.9820,21125
9.9840,8530
9.9860,8386
9.9880,9362
9.9900,10338
9.9920,7201
9.9940,13699
9.9960,4897
9.9980,1568
10.0000,11186
10.0020,8177
10.0040,2944
10.0060,1472
10.0080,17300
10.0100,4241
10.0120,2256
10.0140,1312
10.0160,4000
10.0180,7505
10.0200,5185
10.0220,4737
10.0240,3664
10.0260,2368
10.0280,2912
10.0300,1344
10.0320,2288
10.0340,4961
10.0360,1728
10.0380,6113
10.0400,3040
10.0420,2384
10.0440,5249
10.0460,3888
10.0480,8834
10.0500,3824
10.0520,5921
10.0540,19460
10.0560,8706
10.0580,26758
10.0600,9250
10.0620,18116
10.0640,1824
10.0660,12851
10.0680,17460
10.0700,6481
10.0720,30823
10.0740,1504
10.0760,1664
10.0780,2704
10.0800,2272
10.0820,6049
10.0840,1968
10.0860,2272
10.0880,2448
10.0900,3776
10.0920,2224
10.0940,3520
10.0960,3088
10.0980,1536
10.1000,11810
10.1020,3296
10.1040,2480
10.1060,5025
10.1080,1584
10.1100,3120
10.1120,2576
10.1140,5217
10.1160,11666
10.1180,6449
10.1200,3328
10.1220,2304
10.1240,15475
10.1260,2224
10.1280,5409
10.1300,6289
10.1320,14515
10.1340,1232
10.1360,3040
10.1380,2192
10.1400,11986
10.1420,1744
10.1440,6465
10.1460,6785
10.1480,5489
10.1500,10082
10.1520,15763
10.1540,3248
10.1560,10450
10.1580,17540
10.1600,5633
10.1620,2208
10.1640,5313
10.1660,4449
10.1680,7633
10.1700,4801
10.1720,6289
10.1740,2944
10.1760,2992
10.1780,1920
10.1800,8418
10.1820,6161
10.1840,1808
10.1860,4193
10.1880,2272
10.1900,1920
10.1920,1840
10.1940,1744
10.1960,1776
10.1980,7313
10.2000,19940
10.2020,9730
10.2040,11474
10.2060,8658
10.2080,5169
10.2100,23317
10.2120,5681
10.2140,12739
10.2160,4289
10.2180,8194
10.2200,6433
10.2220,3264
10.2240,11106
10.2260,8402
10.2280,2352
10.2300,3168
10.2320,3136
10.2340,2944
10.2360,4769
10.2380,10562
10.2400,3344
10.2420,2544
10.2440,2032
10.2460,1936
10.2480,2464
10.2500,2336
10.2520,1840
10.2540,1744
10.2560,10066
10.2580,3472
10.2600,22853
10.2620,1664
10.2640,3616
10.2660,7089
10.2680,24998
10.2700,26326
10.2720,1728
10.2740,6833
10.2760,26966
10.2780,3392
10.2800,1872
10.2820,5681
10.2840,12339
10.2860,8738
10.2880,16211
10.2900,12258
10.2920,12659
10.2940,1952
10.2960,6417
10.2980,1440
10.3000,3024
10.3020,1504
10.3040,10498
10.3060,4513
10.3080,2080
10.3100,2384
10.3120,8017
10.3140,7473
10.3160,5137
10.3180,2960
10.3200,1744
10.3220,1680
10.3240,2624
10.3260,1376
10.3280,2464
10.3300,4145
10.3320,1680
10.3340,1856
10.3360,1632
10.3380,4865
10.3400,2272
10.3420,2672
10.3440,4305
10.3460,1840
10.3480,6337
10.3500,2400
10.3520,4032
10.3540,7777
10.3560,2208
10.3580,14915
10.3600,3024
10.3620,6801
10.3640,3024
10.3660,2080
10.3680,3952
10.3700,3008
10.3720,5793
10.3740,8898
10.3760,5409
10.3780,1952
10.3800,2000
10.3820,5777
10.3840,8194
10.3860,2384
10.3880,3488
10.3900,1456
10.3920,2128
10.3940,6689
10.3960,4657
10.3980,8738
10.4000,2192
10.4020,3648
10.4040,1920
10.4060,1536
10.4080,2576
10.4100,8450
10.4120,1424
10.4140,1584
10.4160,2640
10.4180,1456
10.4200,1840
10.4220,9650
10.4240,22581
10.4260,3792
10.4280,1552
10.4300,1984
10.4320,4529
10.4340,2816
10.4360,2224
10.4380,1824
10.4400,9762
10.4420,6817
10.4440,2224
10.4460,2080
10.4480,2112
10.4500,10162
10.4520,3120
10.4540,1088
10.4560,4929
10.4580,2016
10.4600,1616
10.4620,6433
10.4640,2448
10.4660,1856
10.4680,1552
10.4700,4032
10.4720,10962
10.4740,14627
10.4760,13795
10.4780,1952
10.4800,2144
10.4820,2000
10.4840,7729
10.4860,3568
10.4880,1328
10.4900,1680
10.4920,11618
10.4940,16740
10.4960,6065
10.4980,3504
10.5000,3744
10.5020,1664
10.5040,12611
10.5060,14595
10.5080,1824
10.5100,4257
10.5120,1712
10.5140,3824
10.5160,2400
10.5180,3136
10.5200,1600
10.5220,2064
10.5240,1840
10.5260,2192
10.5280,1824
10.5300,1632
10.5320,1616
10.5340,1216
10.5360,1200
10.5380,2048
10.5400,2016
10.5420,2560
10.5440,1776
10.5460,1408
10.5480,2768
10.5500,2816
10.5520,1584
10.5540,1872
10.5560,4833
10.5580,1312
10.5600,2208
10.5620,1600
10.5640,1568
10.5660,6465
10.5680,8258
10.5700,2544
10.5720,1712
10.5740,1760
10.5760,1888
10.5780,1360
10.5800,3520
10.5820,4225
10.5840,1616
10.5860,4945
10.5880,1936
10.5900,1968
10.5920,1328
10.5940,2128
10.5960,1376
10.5980,1664
10.6000,1472
10.6020,2368
10.6040,2336
10.6060,4273
10.6080,4913
10.6100,1664
10.6120,1696
10.6140,2000
10.6160,1568
10.6180,2112
10.6200,4080
10.6220,7553
10.6240,4609
10.6260,5265
10.6280,1424
10.6300,2816
10.6320,2704
10.6340,1600
10.6360,1360
10.6380,1456
10.6400,2656
10.6420,1728
10.6440,5265
10.6460,8177
10.6480,11458
10.6500,1696
10.6520,4257
10.6540,8642
10.6560,1584
10.6580,1584
10.6600,1440
10.6620,2320
10.6640,1424
10.6660,2208
10.6680,1328
10.6700,1856
10.6720,2608
10.6740,1968
10.6760,3536
10.6780,1696
10.6800,2192
10.6820,1536
10.6840,4497
10.6860,7297
10.6880,3920
10.6900,2016
10.6920,3248
10.6940,1392
10.6960,2000
10.6980,2064
10.7000,1200
10.7020,2432
10.7040,1776
10.7060,1344
10.7080,6737
10.7100,5937
10.7120,1232
10.7140,1552
10.7160,1376
10.7180,1840
10.7200,2048
10.7220,1296
10.7240,2224
10.7260,2528
10.7280,1184
10.7300,3936
10.7320,3312
10.7340,2320
10.7360,1552
10.7380,2368
10.7400,1600
10.7420,2112
10.7440,2256
10.7460,1616
10.7480,2128
10.7500,1968
10.7520,2288
10.7540,3248
10.7560,1232
10.7580,4801
10.7600,1248
10.7620,8978
10.7640,8290
10.7660,1264
10.7680,8113
10.7700,3120
10.7720,1344
10.7740,2096
10.7760,1424
10.7780,1616
10.7800,2128
10.7820,1312
10.7840,3040
10.7860,6545
10.7880,1616
10.7900,2976
10.7920,1344
10.7940,3760
10.7960,1952
10.7980,2448
10.8000,1680
10.8020,1792
10.8040,2640
10.8060,1968
10.8080,1296
10.8100,3168
10.8120,1344
10.8140,1696
10.8160,928
10.8180,1440
10.8200,2448
10.8220,3360
10.8240,1696
10.8260,3904
10.8280,2128
10.8300,1984
10.8320,11842
10.8340,2912
10.8360,1600
10.8380,1488
10.8400,2080
10.8420,2192
10.8440,1936
10.8460,2080
10.8480,2272
10.8500,1440
10.8520,1424
10.8540,1792
10.8560,2688
10.8580,2800
10.8600,2448
10.8620,1424
10.8640,2560
10.8660,6593
10.8680,5761
10.8700,1600
10.8720,3376
10.8740,1376
10.8760,1168
10.8780,1344
10.8800,3984
10.8820,1600
10.8840,4417
10.8860,1440
10.8880,1200
10.8900,2848
10.8920,2336
10.8940,1200
10.8960,1120
10.8980,1696
10.9000,6033
10.9020,2816
10.9040,1456
10.9060,1584
10.9080,1824
10.9100,2144
10.9120,1040
10.9140,5825
10.9160,2256
10.9180,1408
10.9200,2640
10.9220,2064
10.9240,1840
10.9260,1632
10.9280,1552
10.9300,2352
10.9320,2016
10.9340,1456
10.9360,1536
10.9380,2384
10.9400,1296
10.9420,1328
10.9440,9698
10.9460,20212
10.9480,1408
10.9500,1216
10.9520,2224
10.9540,1248
10.9560,1472
10.9580,1600
10.9600,5217
10.9620,2896
10.9640,7953
10.9660,896
10.9680,1616
10.9700,1088
10.9720,3632
10.9740,5905
10.9760,1408
10.9780,1600
10.9800,1840
10.9820,2944
10.9840,1312
10.9860,1376
10.9880,2000
10.9900,2288
10.9920,1584
10.9940,7905
10.9960,6913
10.9980,1216
11.0000,1056
11.0020,1696
11.0040,2048
11.0060,1840
11.0080,1296
11.0100,6545
11.0120,2992
11.0140,1856
11.0160,3136
11.0180,1584
11.0200,2064
11.0220,2256
11.0240,3168
11.0260,2096
11.0280,3600
11.0300,2448
11.0320,2352
11.0340,1232
11.0360,10002
11.0380,3104
11.0400,3888
11.0420,1664
11.0440,1632
11.0460,2016
11.0480,7777
11.0500,12723
11.0520,11346
11.0540,3104
11.0560,1280
11.0580,1696
11.0600,3872
11.0620,3216
11.0640,4545
11.0660,2192
11.0680,1456
11.0700,1840
11.0720,1696
11.0740,3888
11.0760,2656
11.0780,2176
11.0800,864
11.0820,1520
11.0840,2832
11.0860,2064
11.0880,944
11.0900,2048
11.0920,1472
11.0940,2192
11.0960,1296
11.0980,2544
11.1000,1888
11.1020,2768
11.1040,1488
11.1060,3152
11.1080,1760
11.1100,1472
11.1120,1424
11.1140,5681
11.1160,816
11.1180,1408
11.1200,1120
11.1220,1360
11.1240,2608
11.1260,1296
11.1280,2176
11.1300,1280
11.1320,4929
11.1340,10018
11.1360,1056
11.1380,1520
11.1400,1344
11.1420,1856
11.1440,1904
11.1460,9362
11.1480,8001
11.1500,3232
11.1520,2608
11.1540,2128
11.1560,1552
11.1580,1888
11.1600,1680
11.1620,2272
11.1640,1568
11.1660,2208
11.1680,1648
11.1700,1584
11.1720,1856
11.1740,1712
11.1760,1360
11.1780,1888
11.1800,2320
11.1820,1568
11.1840,2240
11.1860,960
11.1880,2176
11.1900,2368
11.1920,5537
11.1940,2400
11.1960,1632
11.1980,2240
11.2000,2736
11.2020,1424
11.2040,1728
11.2060,1568
11.2080,2720
11.2100,2128
11.2120,2608
11.2140,2240
11.2160,1360
11.2180,1792
11.2200,1712
11.2220,1328
11.2240,1872
11.2260,1312
11.2280,1488
11.2300,1968
11.2320,3344
11.2340,1504
11.2360,1456
11.2380,1568
11.2400,1360
11.2420,1360
11.2440,1504
11.2460,1120
11.2480,2208
11.2500,3776
11.2520,2128
11.2540,1280
11.2560,2256
11.2580,3360
11.2600,1920
11.2620,2384
11.2640,1264
11.2660,1248
11.2680,1568
11.2700,1216
11.2720,1200
11.2740,1200
11.2760,1680
11.2780,1584
11.2800,1600
11.2820,1072
11.2840,1392
11.2860,2112
11.2880,2752
11.2900,3744
11.2920,2688
11.2940,1488
11.2960,2480
11.2980,1120
11.3000,1472
11.3020,1280
11.3040,1824
11.3060,1808
11.3080,3408
11.3100,7745
11.3120,5681
11.3140,1728
11.3160,1424
11.3180,2480
11.3200,1424
11.3220,1296
11.3240,1664
11.3260,3104
11.3280,1344
11.3300,2832
11.3320,1584
11.3340,1312
11.3360,3072
11.3380,1984
11.3400,1920
11.3420,1696
11.3440,1344
11.3460,1472
11.3480,928
11.3500,1584
11.3520,1504
11.3540,1248
11.3560,1488
11.3580,2224
11.3600,976
11.3620,1856
11.3640,976
11.3660,1616
11.3680,1248
11.3700,1680
11.3720,1360
11.3740,1872
11.3760,6849
11.3780,3264
11.3800,1088
11.3820,1264
11.3840,1264
11.3860,1248
11.3880,2896
11.3900,1072
11.3920,1360
11.3940,1360
11.3960,1072
11.3980,1488
11.4000,2208
11.4020,1712
11.4040,1248
11.4060,1520
11.4080,1376
11.4100,2176
11.4120,1504
11.4140,2560
11.4160,816
11.4180,1936
11.4200,1104
11.4220,1760
11.4240,752
11.4260,1456
11.4280,1024
11.4300,1632
11.4320,784
11.4340,1584
11.4360,1168
11.4380,1472
11.4400,1168
11.4420,2576
11.4440,1216
11.4460,3536
11.4480,1696
11.4500,1296
11.4520,1712
11.4540,1568
11.4560,1616
11.4580,1152
11.4600,1936
11.4620,2176
11.4640,1584
11.4660,1600
11.4680,1456
11.4700,1456
11.4720,1568
11.4740,1296
11.4760,1344
11.4780,1280
11.4800,1088
11.4820,1840
11.4840,1056
11.4860,1296
11.4880,1584
11.4900,848
11.4920,1616
11.4940,1824
11.4960,1504
11.4980,1424
11.5000,976
11.5020,1696
11.5040,1664
11.5060,1968
11.5080,1520
11.5100,1616
11.5120,1712
11.5140,1328
11.5160,2544
11.5180,6497
11.5200,10082
11.5220,2336
11.5240,2560
11.5260,4593
11.5280,1376
11.5300,1488
11.5320,1408
11.5340,1744
11.5360,1024
11.5380,1792
11.5400,1280
11.5420,1360
11.5440,1824
11.5460,1056
11.5480,1456
11.5500,1584
11.5520,1232
11.5540,1344
11.5560,1424
11.5580,2320
11.5600,1312
11.5620,1504
11.5640,1216
11.5660,1120
11.5680,1360
11.5700,7745
11.5720,13555
11.5740,1152
11.5760,1872
11.5780,1504
11.5800,1376
11.5820,1504
11.5840,1600
11.5860,832
11.5880,1568
11.5900,1520
11.5920,1104
11.5940,1552
11.5960,1616
11.5980,1568
11.6000,1792
11.6020,1376
11.6040,3888
11.6060,1872
11.6080,1520
11.6100,2448
11.6120,1584
11.6140,1280
11.6160,1056
11.6180,2112
11.6200,1344
11.6220,1552
11.6240,1296
11.6260,1632
11.6280,1616
11.6300,2240
11.6320,2784
11.6340,1632
11.6360,1168
11.6380,1520
11.6400,1712
11.6420,1248
11.6440,2112
11.6460,1760
11.6480,992
11.6500,1824
11.6520,1104
11.6540,1424
11.6560,1456
11.6580,1456
11.6600,1952
11.6620,2304
11.6640,1168
11.6660,960
11.6680,1568
11.6700,1680
11.6720,1424
11.6740,1408
11.6760,1536
11.6780,5249
11.6800,4769
11.6820,1200
11.6840,1584
11.6860,1424
11.6880,1792
11.6900,2224
11.6920,1504
11.6940,2816
11.6960,2816
11.6980,1120
11.7000,2400
11.7020,3856
11.7040,1632
11.7060,1184
11.7080,3664
11.7100,2736
11.7120,1856
11.7140,1792
11.7160,1200
11.7180,1328
11.7200,1568
11.7220,1552
11.7240,1280
11.7260,1216
11.7280,1424
11.7300,2464
11.7320,1168
11.7340,1824
11.7360,3840
11.7380,480
11.7400,1024
11.7420,2784
11.7440,1040
11.7460,1328
11.7480,1680
11.7500,2016
11.7520,1424
11.7540,2336
11.7560,1184
11.7580,1328
11.7600,2064
11.7620,1664
11.7640,1824
11.7660,1184
11.7680,976
11.7700,1488
11.7720,2848
11.7740,7793
11.7760,10930
11.7780,3040
11.7800,1984
11.7820,1792
11.7840,2608
11.7860,2544
11.7880,1376
11.7900,1824
11.7920,1632
11.7940,1568
11.7960,1504
11.7980,3968
11.8000,2768
11.8020,1568
11.8040,1504
11.8060,2960
11.8080,4753
11.8100,1312
11.8120,1552
11.8140,7985
11.8160,2480
11.8180,1952
11.8200,1024
11.8220,1344
11.8240,912
11.8260,896
11.8280,1808
11.8300,1056
11.8320,1600
11.8340,1040
11.8360,1456
11.8380,912
11.8400,816
11.8420,2832
11.8440,1200
11.8460,1056
11.8480,1056
11.8500,1168
11.8520,1536
11.8540,928
11.8560,1728
11.8580,1360
11.8600,1232
11.8620,1232
11.8640,4561
11.8660,2144
11.8680,1568
11.8700,2144
11.8720,1824
11.8740,1424
11.8760,2528
11.8780,2432
11.8800,1344
11.8820,2832
11.8840,1376
11.8860,2576
11.8880,1408
11.8900,1200
11.8920,1280
11.8940,896
11.8960,1504
11.8980,1488
11.9000,1408
11.9020,1872
11.9040,1472
11.9060,1040
11.9080,3888
11.9100,4273
11.9120,1392
11.9140,1200
11.9160,1168
11.9180,4753
11.9200,1488
11.9220,1312
11.9240,2176
11.9260,1632
11.9280,1824
11.9300,1824
11.9320,1696
11.9340,1456
11.9360,1488
11.9380,1360
11.9400,1360
11.9420,2080
11.9440,2224
11.9460,2240
11.9480,5473
11.9500,2416
11.9520,1968
11.9540,1424
11.9560,1456
11.9580,1856
11.9600,1424
11.9620,1440
11.9640,1200
11.9660,1440
11.9680,2016
11.9700,960
11.9720,1728
11.9740,1424
11.9760,2416
11.9780,1472
11.9800,1328
11.9820,1568
11.9840,4737
11.9860,6145
11.9880,2080
11.9900,1488
11.9920,1120
11.9940,1360
11.9960,1152
11.9980,1520
12.0000,1216
12.0020,1280
12.0040,1616
12.0060,3984
12.0080,2320
12.0100,1024
12.0120,1440
12.0140,1792
12.0160,3600
12.0180,2096
12.0200,1104
12.0220,1824
12.0240,1984
12.0260,1216
12.0280,1584
12.0300,2096
12.0320,1184
12.0340,1520
12.0360,1520
12.0380,1248
12.0400,1616
12.0420,2272
12.0440,1520
12.0460,1456
12.0480,1312
12.0500,1392
12.0520,1776
12.0540,1088
12.0560,3632
12.0580,1952
12.0600,1728
12.0620,2496
12.0640,1120
12.0660,2704
12.0680,4305
12.0700,992
12.0720,1888
12.0740,1840
12.0760,1664
12.0780,1760
12.0800,1200
12.0820,1552
12.0840,2176
12.0860,1856
12.0880,1520
12.0900,1120
12.0920,1280
12.0940,1392
12.0960,1664
12.0980,1296
12.1000,2848
12.1020,1664
12.1040,2448
12.1060,4833
12.1080,720
12.1100,1552
12.1120,1296
12.1140,1600
12.1160,1360
12.1180,1408
12.1200,1216
12.1220,1712
12.1240,1056
12.1260,1344
12.1280,1504
12.1300,2608
12.1320,1808
12.1340,1536
12.1360,1424
12.1380,1200
12.1400,1808
12.1420,2256
12.1440,2624
12.1460,1296
12.1480,1504
12.1500,1248
12.1520,2048
12.1540,3200
12.1560,1568
12.1580,1344
12.1600,1120
12.1620,1072
12.1640,1440
12.1660,1408
12.1680,1456
12.1700,1056
12.1720,2832
12.1740,1696
12.1760,1680
12.1780,1536
12.1800,5025
12.1820,5969
12.1840,992
12.1860,1104
12.1880,992
12.1900,1296
12.1920,2448
12.1940,2112
12.1960,2048
12.1980,2000
12.2000,1840
12.2020,1584
12.2040,2448
12.2060,1792
12.2080,1168
12.2100,2720
12.2120,1840
12.2140,1360
12.2160,1488
12.2180,1152
12.2200,1248
12.2220,1472
12.2240,2016
12.2260,976
12.2280,2176
12.2300,1536
12.2320,1568
12.2340,2560
12.2360,3184
12.2380,1856
12.2400,1984
12.2420,2288
12.2440,2512
12.2460,1184
12.2480,1024
12.2500,2224
12.2520,12883
12.2540,3712
12.2560,1488
12.2580,1840
12.2600,5281
12.2620,1632
12.2640,6193
12.2660,3280
12.2680,1184
12.2700,10802
12.2720,7873
12.2740,1456
12.2760,1600
12.2780,1488
12.2800,1408
12.2820,8290
12.2840,3296
12.2860,1664
12.2880,1184
12.2900,976
12.2920,1808
12.2940,1424
12.2960,1472
12.2980,1712
12.3000,2240
12.3020,1712
12.3040,1280
12.3060,1344
12.3080,1360
12.3100,1456
12.3120,1296
12.3140,1744
12.3160,1888
12.3180,1552
12.3200,1856
12.3220,1168
12.3240,1888
12.3260,1552
12.3280,1632
12.3300,1824
12.3320,1120
12.3340,816
12.3360,1424
12.3380,6833
12.3400,2608
12.3420,2016
12.3440,1296
12.3460,2848
12.3480,1408
12.3500,1264
12.3520,1168
12.3540,1728
12.3560,1040
12.3580,2128
12.3600,2432
12.3620,1360
12.3640,960
12.3660,1824
12.3680,1584
12.3700,1392
12.3720,8466
12.3740,3872
12.3760,1568
12.3780,1584
12.3800,2352
12.3820,1248
12.3840,1472
12.3860,1808
12.3880,1216
12.3900,1488
12.3920,1680
12.3940,1456
12.3960,1600
12.3980,1776
12.4000,1216
12.4020,1488
12.4040,1920
12.4060,1200
12.4080,1184
12.4100,2272
12.4120,1408
12.4140,1536
12.4160,1408
12.4180,1312
12.4200,1728
12.4220,1456
12.4240,1568
12.4260,1296
12.4280,1376
12.4300,1392
12.4320,1056
12.4340,1664
12.4360,1472
12.4380,1184
12.4400,1152
12.4420,2000
12.4440,1360
12.4460,1584
12.4480,7265
12.4500,1344
12.4520,2592
12.4540,1648
12.4560,1232
12.4580,2512
12.4600,4481
12.4620,2112
12.4640,1344
12.4660,1680
12.4680,1488
12.4700,1664
12.4720,2096
12.4740,1248
12.4760,2064
12.4780,1616
12.4800,1056
12.4820,1344
12.4840,4032
12.4860,3472
12.4880,1712
12.4900,1968
12.4920,1680
12.4940,1472
12.4960,2256
12.4980,5905
12.5000,2944
12.5020,1440
12.5040,1760
12.5060,1296
12.5080,1456
12.5100,1120
12.5120,1440
12.5140,1408
12.5160,1728
12.5180,2208
12.5200,1456
12.5220,1616
12.5240,1488
12.5260,1536
12.5280,1168
12.5300,1664
12.5320,1520
12.5340,2128
12.5360,1168
12.5380,1376
12.5400,1904
12.5420,2512
12.5440,3120
12.5460,1408
12.5480,1184
12.5500,1184
12.5520,1728
12.5540,1408
12.5560,1424
12.5580,1280
12.5600,1536
12.5620,1648
12.5640,1312
12.5660,1184
12.5680,1760
12.5700,2528
12.5720,2528
12.5740,1952
12.5760,1472
12.5780,1264
12.5800,1456
12.5820,1456
12.5840,2512
12.5860,912
12.5880,1504
12.5900,6481
12.5920,1488
12.5940,1680
12.5960,1488
12.5980,1840
12.6000,1568
12.6020,1376
12.6040,1536
12.6060,1360
12.6080,976
12.6100,1344
12.6120,1456
12.6140,4273
12.6160,3456
12.6180,2096
12.6200,1568
12.6220,1152
12.6240,1264
12.6260,1376
12.6280,2432
12.6300,1440
12.6320,1040
12.6340,1632
12.6360,1680
12.6380,1360
12.6400,2048
12.6420,1088
12.6440,1328
12.6460,2512
12.6480,1360
12.6500,1152
12.6520,1760
12.6540,1168
12.6560,1776
12.6580,1296
12.6600,3872
12.6620,1200
12.6640,3456
12.6660,3616
12.6680,1216
12.6700,1840
12.6720,1936
12.6740,1856
12.6760,1648
12.6780,1152
12.6800,1184
12.6820,1344
12.6840,2144
12.6860,1536
12.6880,928
12.6900,2176
12.6920,1152
12.6940,1344
12.6960,1744
12.6980,2640
12.7000,1072
12.7020,2480
12.7040,1568
12.7060,1776
12.7080,1664
12.7100,1376
12.7120,6465
12.7140,3408
12.7160,1584
12.7180,1760
12.7200,1376
12.7220,2384
12.7240,1552
12.7260,912
12.7280,1680
12.7300,1664
12.7320,1488
12.7340,1120
12.7360,1472
12.7380,1104
12.7400,1456
12.7420,1344
12.7440,1488
12.7460,1248
12.7480,2208
12.7500,1216
12.7520,1760
12.7540,2464
12.7560,1728
12.7580,1472
12.7600,1376
12.7620,1104
12.7640,1504
12.7660,1024
12.7680,1184
12.7700,1264
12.7720,1152
12.7740,3664
12.7760,13155
12.7780,9698
12.7800,2224
12.7820,2576
12.7840,1472
12.7860,1584
12.7880,4257
12.7900,2688
12.7920,1168
12.7940,1600
12.7960,1824
12.7980,1696
12.8000,1232
12.8020,1552
12.8040,1808
12.8060,1536
12.8080,1552
12.8100,1616
12.8120,1680
12.8140,2880
12.8160,2000
12.8180,1248
12.8200,976
12.8220,1488
12.8240,2192
12.8260,1152
12.8280,1088
12.8300,1456
12.8320,1712
12.8340,3984
12.8360,1664
12.8380,3632
12.8400,1456
12.8420,2000
12.8440,1632
12.8460,2336
12.8480,1664
12.8500,1248
12.8520,992
12.8540,1808
12.8560,1632
12.8580,3040
12.8600,1488
12.8620,1696
12.8640,1728
12.8660,1072
12.8680,1184
12.8700,1360
12.8720,1792
12.8740,2128
12.8760,1344
12.8780,1536
12.8800,1232
12.8820,1104
12.8840,3968
12.8860,1856
12.8880,1488
12.8900,2352
12.8920,1920
12.8940,1280
12.8960,1184
12.8980,1040
12.9000,2192
12.9020,2944
12.9040,4097
12.9060,4129
12.9080,1344
12.9100,1328
12.9120,976
12.9140,1936
12.9160,1456
12.9180,1168
12.9200,1520
12.9220,1456
12.9240,1824
12.9260,1072
12.9280,1312
12.9300,3856
12.9320,1360
12.9340,1984
12.9360,1696
12.9380,1568
12.9400,2064
12.9420,1568
12.9440,1712
12.9460,1360
12.9480,1440
12.9500,1360
12.9520,1664
12.9540,1824
12.9560,1488
12.9580,1632
12.9600,1072
12.9620,1104
12.9640,2496
12.9660,2096
12.9680,1456
12.9700,1328
12.9720,1904
12.9740,1952
12.9760,1712
12.9780,1616
12.9800,1440
12.9820,1296
12.9840,1360
12.9860,1632
12.9880,1344
12.9900,1536
12.9920,1280
12.9940,1712
12.9960,1936
12.9980,1600
13.0000,1760
13.0020,1536
13.0040,2432
13.0060,1568
13.0080,2096
13.0100,1376
13.0120,1232
13.0140,1232
13.0160,1408
13.0180,1328
13.0200,1280
13.0220,5809
13.0240,3072
13.0260,4609
13.0280,2096
13.0300,864
13.0320,3584
13.0340,1760
13.0360,2880
13.0380,1888
13.0400,1248
13.0420,1088
13.0440,1792
13.0460,1120
13.0480,1936
13.0500,1232
13.0520,1872
13.0540,1168
13.0560,4401
13.0580,5169
13.0600,1520
13.0620,960
13.0640,1408
13.0660,3344
13.0680,3632
13.0700,2208
13.0720,1472
13.0740,1584
13.0760,1344
13.0780,1296
13.0800,1280
13.0820,1472
13.0840,1328
13.0860,1264
13.0880,1280
13.0900,1824
13.0920,1440
13.0940,1552
13.0960,2400
13.0980,1872
13.1000,1312
13.1020,1888
13.1040,1424
13.1060,1488
13.1080,2080
13.1100,1680
13.1120,1056
13.1140,1488
13.1160,1920
13.1180,1248
13.1200,1424
13.1220,1648
13.1240,1584
13.1260,1328
13.1280,1376
13.1300,1712
13.1320,1424
13.1340,1168
13.1360,1232
13.1380,960
13.1400,2320
13.1420,1312
13.1440,1664
13.1460,1456
13.1480,1488
13.1500,1200
13.1520,1248
13.1540,848
13.1560,1488
13.1580,8866
13.1600,8562
13.1620,1568
13.1640,1488
13.1660,1312
13.1680,1376
13.1700,1296
13.1720,1168
13.1740,1504
13.1760,1120
13.1780,3632
13.1800,4129
13.1820,2432
13.1840,1456
13.1860,1312
13.1880,1488
13.1900,3584
13.1920,2624
13.1940,1312
13.1960,1920
13.1980,992
13.2000,1680
13.2020,1088
13.2040,1072
13.2060,1520
13.2080,1216
13.2100,3248
13.2120,1632
13.2140,2080
13.2160,1936
13.2180,1168
13.2200,1280
13.2220,1056
13.2240,1296
13.2260,1264
13.2280,1872
13.2300,1760
13.2320,1824
13.2340,1584
13.2360,1600
13.2380,1168
13.2400,1568
13.2420,2608
13.2440,1504
13.2460,1600
13.2480,1600
13.2500,6017
13.2520,3904
13.2540,1440
13.2560,2128
13.2580,1584
13.2600,1328
13.2620,1728
13.2640,736
13.2660,1168
13.2680,1024
13.2700,1760
13.2720,1456
13.2740,1504
13.2760,1184
13.2780,1552
13.2800,944
13.2820,1376
13.2840,1744
13.2860,1568
13.2880,1280
13.2900,2368
13.2920,6161
13.2940,2128
13.2960,1200
13.2980,5153
13.3000,1728
13.3020,1296
13.3040,1360
13.3060,1440
13.3080,1456
13.3100,1680
13.3120,1552
13.3140,1088
13.3160,1056
13.3180,1696
13.3200,1168
13.3220,1104
13.3240,1424
13.3260,1760
13.3280,1424
13.3300,1248
13.3320,976
13.3340,1088
13.3360,1280
13.3380,1552
13.3400,1824
13.3420,1408
13.3440,1120
13.3460,1664
13.3480,3152
13.3500,1248
13.3520,1440
13.3540,1808
13.3560,4625
13.3580,1568
13.3600,1552
13.3620,2000
13.3640,1280
13.3660,1712
13.3680,2464
13.3700,1232
13.3720,928
13.3740,1568
13.3760,1168
13.3780,1152
13.3800,1152
13.3820,1808
13.3840,1328
13.3860,1408
13.3880,1920
13.3900,1056
13.3920,1360
13.3940,1568
13.3960,1936
13.3980,1440
13.4000,1040
13.4020,1424
13.4040,1328
13.4060,1488
13.4080,2640
13.4100,2272
13.4120,1104
13.4140,1472
13.4160,1616
13.4180,1888
13.4200,4801
13.4220,1200
13.4240,1472
13.4260,1856
13.4280,1072
13.4300,1680
13.4320,1488
13.4340,1424
13.4360,3120
13.4380,1824
13.4400,1792
13.4420,1504
13.4440,1088
13.4460,864
13.4480,2304
13.4500,1728
13.4520,1200
13.4540,1440
13.4560,1216
13.4580,1456
13.4600,1408
13.4620,8242
13.4640,1584
13.4660,1312
13.4680,2720
13.4700,1152
13.4720,1472
13.4740,1616
13.4760,1184
13.4780,1536
13.4800,1488
13.4820,1040
13.4840,1344
13.4860,1840
13.4880,1120
13.4900,1168
13.4920,1552
13.4940,1952
13.4960,1632
13.4980,1344
13.5000,816
13.5020,1200
13.5040,1552
13.5060,1168
13.5080,1664
13.5100,1840
13.5120,1168
13.5140,960
13.5160,1792
13.5180,1552
13.5200,1328
13.5220,1600
13.5240,1696
13.5260,1408
13.5280,1536
13.5300,1248
13.5320,1024
13.5340,1840
13.5360,4032
13.5380,2400
13.5400,2176
13.5420,1184
13.5440,2224
13.5460,2096
13.5480,1744
13.5500,1440
13.5520,1184
13.5540,1744
13.5560,1168
13.5580,5409
13.5600,7089
13.5620,1440
13.5640,1344
13.5660,1456
13.5680,1408
13.5700,1328
13.5720,1552
13.5740,1152
13.5760,1712
13.5780,1424
13.5800,1744
13.5820,1264
13.5840,1584
13.5860,1616
13.5880,1232
13.5900,2672
13.5920,1456
13.5940,1600
13.5960,960
13.5980,1616
13.6000,1040
13.6020,1136
13.6040,2432
13.6060,1408
13.6080,2608
13.6100,1120
13.6120,1360
13.6140,1104
13.6160,1216
13.6180,976
13.6200,1280
13.6220,1184
13.6240,1232
13.6260,1376
13.6280,1392
13.6300,1456
13.6320,1152
13.6340,1296
13.6360,2048
13.6380,1872
13.6400,2736
13.6420,1232
13.6440,1088
13.6460,1712
13.6480,1200
13.6500,1360
13.6520,1264
13.6540,1520
13.6560,1456
13.6580,1184
13.6600,3168
13.6620,1952
13.6640,976
13.6660,2592
13.6680,1264
13.6700,1504
13.6720,1632
13.6740,4337
13.6760,3792
13.6780,1504
13.6800,2112
13.6820,1600
13.6840,2304
13.6860,1616
13.6880,1520
13.6900,1472
13.6920,1072
13.6940,1792
13.6960,1552
13.6980,1216
13.7000,1696
13.7020,1280
13.7040,3136
13.7060,1296
13.7080,1728
13.7100,1344
13.7120,1312
13.7140,1152
13.7160,1232
13.7180,1504
13.7200,1488
13.7220,1408
13.7240,1504
13.7260,1696
13.7280,1600
13.7300,1440
13.7320,1552
13.7340,1312
13.7360,1328
13.7380,1184
13.7400,1568
13.7420,1104
13.7440,1872
13.7460,1584
13.7480,1568
13.7500,1568
13.7520,1168
13.7540,1184
13.7560,1664
13.7580,1584
13.7600,1424
13.7620,1488
13.7640,1472
13.7660,2000
13.7680,1472
13.7700,1376
13.7720,1472
13.7740,1536
13.7760,1344
13.7780,1152
13.7800,1424
13.7820,1504
13.7840,1472
13.7860,2112
13.7880,7265
13.7900,2112
13.7920,1152
13.7940,1808
13.7960,3744
13.7980,2304
13.8000,2096
13.8020,2448
13.8040,1728
13.8060,2400
13.8080,1872
13.8100,1648
13.8120,1472
13.8140,736
13.8160,1600
13.8180,1248
13.8200,864
13.8220,1312
13.8240,1760
13.8260,1872
13.8280,1328
13.8300,6801
13.8320,2320
13.8340,1824
13.8360,960
13.8380,1536
13.8400,1888
13.8420,1696
13.8440,1152
13.8460,1360
13.8480,1456
13.8500,1728
13.8520,928
13.8540,1440
13.8560,1312
13.8580,1328
13.8600,1088
13.8620,1136
13.8640,1120
13.8660,1408
13.8680,992
13.8700,976
13.8720,1760
13.8740,1360
13.8760,1360
13.8780,1008
13.8800,1296
13.8820,1152
13.8840,1424
13.8860,1424
13.8880,6033
13.8900,1504
13.8920,1312
13.8940,1488
13.8960,944
13.8980,3328
13.9000,1184
13.9020,1584
13.9040,1472
13.9060,1184
13.9080,1232
13.9100,1312
13.9120,1776
13.9140,1456
13.9160,5729
13.9180,3152
13.9200,1200
13.9220,1232
13.9240,1376
13.9260,1696
13.9280,1696
13.9300,9218
13.9320,5937
13.9340,2160
13.9360,2816
13.9380,1232
13.9400,1456
13.9420,1872
13.9440,1488
13.9460,1184
13.9480,1456
13.9500,1200
13.9520,1376
13.9540,1104
13.9560,1088
13.9580,1088
13.9600,3296
13.9620,6593
13.9640,1600
13.9660,1600
13.9680,1424
13.9700,2336
13.9720,1536
13.9740,1136
13.9760,1808
13.9780,1440
13.9800,1872
13.9820,1328
13.9840,1744
13.9860,1984
13.9880,1024
13.9900,4657
13.9920,3536
13.9940,1504
13.9960,2080
13.9980,1616
14.0000,1728
14.0020,1360
14.0040,1248
14.0060,1040
14.0080,1072
14.0100,976
14.0120,1408
14.0140,1216
14.0160,2064
14.0180,1760
14.0200,1872
14.0220,1504
14.0240,1088
14.0260,1360
14.0280,1840
14.0300,1408
14.0320,1840
14.0340,1552
14.0360,1568
14.0380,1728
14.0400,1952
14.0420,1600
14.0440,1376
14.0460,1840
14.0480,960
14.0500,1008
14.0520,2848
14.0540,5313
14.0560,1696
14.0580,1008
14.0600,1440
14.0620,1248
14.0640,1072
14.0660,1584
14.0680,2720
14.0700,2624
14.0720,1520
14.0740,2896
14.0760,1712
14.0780,1504
14.0800,1216
14.0820,1808
14.0840,2256
14.0860,1376
14.0880,2544
14.0900,1856
14.0920,1424
14.0940,4145
14.0960,1664
14.0980,1200
14.1000,1792
14.1020,4849
14.1040,2128
14.1060,2704
14.1080,6433
14.1100,5249
14.1120,1376
14.1140,1472
14.1160,1888
14.1180,1104
14.1200,1088
14.1220,1216
14.1240,1232
14.1260,928
14.1280,1360
14.1300,1152
14.1320,1344
14.1340,1024
14.1360,1104
14.1380,1232
14.1400,976
14.1420,2464
14.1440,1600
14.1460,1472
14.1480,2048
14.1500,1696
14.1520,2080
14.1540,1184
14.1560,1568
14.1580,1536
14.1600,1744
14.1620,1104
14.1640,1504
14.1660,1200
14.1680,1120
14.1700,1728
14.1720,1984
14.1740,1536
14.1760,3360
14.1780,1296
14.1800,1504
14.1820,1856
14.1840,1120
14.1860,1584
14.1880,1184
14.1900,1552
14.1920,1104
14.1940,1120
14.1960,1920
14.1980,1920
14.2000,1424
14.2020,1504
14.2040,1232
14.2060,1792
14.2080,912
14.2100,1312
14.2120,2016
14.2140,1520
14.2160,1200
14.2180,1296
14.2200,1424
14.2220,1360
14.2240,1616
14.2260,1568
14.2280,1760
14.2300,1184
14.2320,1920
14.2340,1424
14.2360,1904
14.2380,1120
14.2400,1248
14.2420,1264
14.2440,4609
14.2460,1664
14.2480,1328
14.2500,1264
14.2520,1632
14.2540,1344
14.2560,1696
14.2580,1440
14.2600,1760
14.2620,2144
14.2640,1296
14.2660,1040
14.2680,2000
14.2700,1520
14.2720,1120
14.2740,2048
14.2760,2528
14.2780,1168
14.2800,2048
14.2820,1664
14.2840,1872
14.2860,1728
14.2880,1680
14.2900,1360
14.2920,1472
14.2940,1680
14.2960,1376
14.2980,1088
14.3000,1136
14.3020,1664
14.3040,1472
14.3060,1584
14.3080,4417
14.3100,2128
14.3120,1216
14.3140,5329
14.3160,1536
14.3180,1088
14.3200,928
14.3220,1216
14.3240,1328
14.3260,1168
14.3280,1648
14.3300,1376
14.3320,1376
14.3340,1536
14.3360,1488
14.3380,1440
14.3400,1408
14.3420,4625
14.3440,7393
14.3460,1152
14.3480,864
14.3500,1552
14.3520,1664
14.3540,1168
14.3560,1312
14.3580,1328
14.3600,2000
14.3620,1040
14.3640,1552
14.3660,1200
14.3680,1392
14.3700,1216
14.3720,1408
14.3740,1424
14.3760,1984
14.3780,1456
14.3800,1424
14.3820,2288
14.3840,1600
14.3860,1232
14.3880,1552
14.3900,1328
14.3920,1296
14.3940,832
14.3960,1568
14.3980,768
14.4000,1344
14.4020,6401
14.4040,3248
14.4060,1440
14.4080,1680
14.4100,1088
14.4120,1360
14.4140,912
14.4160,1200
14.4180,1872
14.4200,1600
14.4220,2272
14.4240,1664
14.4260,1248
14.4280,1232
14.4300,1200
14.4320,1184
14.4340,1216
14.4360,1280
14.4380,1104
14.4400,1424
14.4420,1568
14.4440,2352
14.4460,2752
14.4480,848
14.4500,3312
14.4520,2848
14.4540,1536
14.4560,1200
14.4580,1264
14.4600,1152
14.4620,1232
14.4640,896
14.4660,1280
14.4680,1008
14.4700,1856
14.4720,976
14.4740,1408
14.4760,1600
14.4780,1344
14.4800,5537
14.4820,1440
14.4840,2304
14.4860,1456
14.4880,1680
14.4900,1632
14.4920,1088
14.4940,2960
14.4960,1664
14.4980,1584
14.5000,1520
14.5020,1088
14.5040,1440
14.5060,1408
14.5080,1552
14.5100,1328
14.5120,1168
14.5140,1616
14.5160,1104
14.5180,1680
14.5200,2864
14.5220,1584
14.5240,1616
14.5260,1360
14.5280,2912
14.5300,7409
14.5320,1344
14.5340,1808
14.5360,1520
14.5380,1488
14.5400,1456
14.5420,1552
14.5440,2144
14.5460,1424
14.5480,1856
14.5500,7105
14.5520,1680
14.5540,1984
14.5560,1664
14.5580,1712
14.5600,1440
14.5620,1296
14.5640,2928
14.5660,1552
14.5680,1088
14.5700,1040
14.5720,1360
14.5740,928
14.5760,1792
14.5780,1152
14.5800,1792
14.5820,1488
14.5840,1728
14.5860,1216
14.5880,1584
14.5900,1280
14.5920,1824
14.5940,1584
14.5960,1296
14.5980,1360
14.6000,1072
14.6020,1168
14.6040,1504
14.6060,2688
14.6080,1312
14.6100,1328
14.6120,1408
14.6140,1376
14.6160,976
14.6180,1616
14.6200,1920
14.6220,992
14.6240,2176
14.6260,1648
14.6280,1280
14.6300,2080
14.6320,1520
14.6340,2080
14.6360,1920
14.6380,1408
14.6400,1312
14.6420,1152
14.6440,1200
14.6460,1376
14.6480,1472
14.6500,928
14.6520,1648
14.6540,1536
14.6560,1056
14.6580,1168
14.6600,1648
14.6620,2000
14.6640,2640
14.6660,3072
14.6680,1552
14.6700,1408
14.6720,3104
14.6740,992
14.6760,1840
14.6780,5809
14.6800,1168
14.6820,3376
14.6840,3360
14.6860,1104
14.6880,2000
14.6900,1296
14.6920,1760
14.6940,1360
14.6960,1440
14.6980,1888
14.7000,1264
14.7020,1552
14.7040,1040
14.7060,1376
14.7080,1552
14.7100,1888
14.7120,1264
14.7140,1040
14.7160,1792
14.7180,3872
14.7200,1040
14.7220,1488
14.7240,4048
14.7260,3216
14.7280,1408
14.7300,1008
14.7320,1360
14.7340,1920
14.7360,1104
14.7380,976
14.7400,1248
14.7420,1216
14.7440,1072
14.7460,1104
14.7480,1536
14.7500,1312
14.7520,1056
14.7540,1200
14.7560,1360
14.7580,1408
14.7600,800
14.7620,1440
14.7640,1456
14.7660,1760
14.7680,2608
14.7700,1840
14.7720,2320
14.7740,1888
14.7760,1296
14.7780,1680
14.7800,1792
14.7820,1088
14.7840,1232
14.7860,1120
14.7880,1008
14.7900,2144
14.7920,2896
14.7940,6849
14.7960,1600
14.7980,1568
14.8000,1120
14.8020,1120
14.8040,1552
14.8060,848
14.8080,1376
14.8100,1824
14.8120,976
14.8140,2000
14.8160,1424
14.8180,1024
14.8200,1616
14.8220,1408
14.8240,864
14.8260,1568
14.8280,1280
14.8300,1360
14.8320,1536
14.8340,1232
14.8360,1280
14.8380,2112
14.8400,1584
14.8420,1104
14.8440,1552
14.8460,1504
14.8480,1472
14.8500,1760
14.8520,1776
14.8540,1184
14.8560,1680
14.8580,1728
14.8600,1504
14.8620,1088
14.8640,1424
14.8660,1424
14.8680,1424
14.8700,1584
14.8720,1456
14.8740,1552
14.8760,1296
14.8780,1152
14.8800,1152
14.8820,1056
14.8840,2096
14.8860,2096
14.8880,1872
14.8900,1536
14.8920,1312
14.8940,1600
14.8960,1248
14.8980,1184
14.9000,1456
14.9020,1696
14.9040,1328
14.9060,1344
14.9080,1488
14.9100,1168
14.9120,1216
14.9140,1856
14.9160,1152
14.9180,1568
14.9200,1056
14.9220,1600
14.9240,1680
14.9260,1728
14.9280,1312
14.9300,1136
14.9320,1200
14.9340,912
14.9360,992
14.9380,1200
14.9400,1584
14.9420,1808
14.9440,1280
14.9460,1040
14.9480,1328
14.9500,1232
14.9520,1936
14.9540,11794
14.9560,5409
14.9580,1936
14.9600,1888
14.9620,4032
14.9640,896
14.9660,2272
14.9680,1744
14.9700,2736
14.9720,1552
14.9740,2960
14.9760,2576
14.9780,1168
14.9800,1328
14.9820,1760
14.9840,1088
14.9860,1376
14.9880,1168
14.9900,1312
14.9920,896
14.9940,1264
14.9960,1360
14.9980,1200
15.0000,1200
15.0020,2192
15.0040,1088
15.0060,1584
15.0080,1488
15.0100,1936
15.0120,1584
15.0140,1472
15.0160,1664
15.0180,1536
15.0200,1424
15.0220,1184
15.0240,1472
15.0260,1168
15.0280,1664
15.0300,1040
15.0320,1504
15.0340,1552
15.0360,1152
15.0380,1312
15.0400,2128
15.0420,1712
15.0440,1312
15.0460,1104
15.0480,992
15.0500,1024
15.0520,1168
15.0540,1616
15.0560,1184
15.0580,1504
15.0600,992
15.0620,1824
15.0640,2752
15.0660,2256
15.0680,1424
15.0700,1296
15.0720,1536
15.0740,1600
15.0760,1328
15.0780,1232
15.0800,1792
15.0820,2368
15.0840,1472
15.0860,1344
15.0880,1936
15.0900,5201
15.0920,5073
15.0940,1680
15.0960,896
15.0980,1360
15.1000,1296
15.1020,1520
15.1040,1696
15.1060,1600
15.1080,1280
15.1100,1376
15.1120,1616
15.1140,2720
15.1160,2304
15.1180,1824
15.1200,1504
15.1220,1040
15.1240,1184
15.1260,1152
15.1280,1280
15.1300,1536
15.1320,1712
15.1340,1616
15.1360,976
15.1380,1344
15.1400,1440
15.1420,1168
15.1440,1680
15.1460,1696
15.1480,1504
15.1500,1200
15.1520,1088
15.1540,1280
15.1560,1056
15.1580,1216
15.1600,1616
15.1620,1424
15.1640,1248
15.1660,1360
15.1680,1200
15.1700,1056
15.1720,1360
15.1740,1200
15.1760,1360
15.1780,1040
15.1800,1280
15.1820,2096
15.1840,1472
15.1860,1216
15.1880,2448
15.1900,1856
15.1920,1104
15.1940,1120
15.1960,1104
15.1980,1120
15.2000,1152
15.2020,1280
15.2040,1280
15.2060,1552
15.2080,1328
15.2100,1632
15.2120,1552
15.2140,5297
15.2160,3520
15.2180,1472
15.2200,3952
15.2220,5969
15.2240,2128
15.2260,1392
15.2280,1072
15.2300,1328
15.2320,1216
15.2340,1232
15.2360,1056
15.2380,1376
15.2400,1296
15.2420,1408
15.2440,1328
15.2460,1632
15.2480,1296
15.2500,1600
15.2520,1312
15.2540,1024
15.2560,2256
15.2580,2960
15.2600,1360
15.2620,1440
15.2640,2144
15.2660,1760
15.2680,3632
15.2700,1408
15.2720,1296
15.2740,1456
15.2760,1616
15.2780,1488
15.2800,1792
15.2820,1376
15.2840,2640
15.2860,1456
15.2880,2384
15.2900,1712
15.2920,1328
15.2940,2208
15.2960,1216
15.2980,2128
15.3000,976
15.3020,1808
15.3040,1456
15.3060,1200
15.3080,1616
15.3100,6977
15.3120,1664
15.3140,1888
15.3160,1376
15.3180,1840
15.3200,4289
15.3220,5585
15.3240,1088
15.3260,1088
15.3280,1088
15.3300,992
15.3320,1424
15.3340,1296
15.3360,1152
15.3380,1104
15.3400,1600
15.3420,1088
15.3440,1776
15.3460,1248
15.3480,1728
15.3500,1248
15.3520,1440
15.3540,1696
15.3560,1376
15.3580,1296
15.3600,1520
15.3620,960
15.3640,1584
15.3660,1280
15.3680,1344
15.3700,1952
15.3720,1456
15.3740,1616
15.3760,1120
15.3780,2576
15.3800,1376
15.3820,1280
15.3840,1424
15.3860,944
15.3880,1104
15.3900,1632
15.3920,1600
15.3940,1408
15.3960,1328
15.3980,1632
15.4000,1152
15.4020,1536
15.4040,1408
15.4060,3616
15.4080,2096
15.4100,1488
15.4120,1552
15.4140,1584
15.4160,1056
15.4180,928
15.4200,1424
15.4220,1296
15.4240,1216
15.4260,1520
15.4280,1456
15.4300,1120
15.4320,1360
15.4340,1824
15.4360,1632
15.4380,1568
15.4400,1312
15.4420,1360
15.4440,1744
15.4460,1168
15.4480,1536
15.4500,672
15.4520,1424
15.4540,1664
15.4560,1792
15.4580,1728
15.4600,1568
15.4620,1488
15.4640,1216
15.4660,960
15.4680,1840
15.4700,1296
15.4720,1072
15.4740,1312
15.4760,3520
15.4780,5025
15.4800,1584
15.4820,1360
15.4840,1744
15.4860,1440
15.4880,1200
15.4900,1648
15.4920,1840
15.4940,1408
15.4960,1280
15.4980,1184
15.5000,1552
15.5020,1328
15.5040,1120
15.5060,1296
15.5080,1664
15.5100,1696
15.5120,3632
15.5140,1680
15.5160,1440
15.5180,1280
15.5200,1584
15.5220,1248
15.5240,1696
15.5260,1568
15.5280,1120
15.5300,1376
15.5320,1472
15.5340,1680
15.5360,1568
15.5380,1440
15.5400,2064
15.5420,2336
15.5440,1328
15.5460,1568
15.5480,3632
15.5500,1024
15.5520,1504
15.5540,1296
15.5560,1248
15.5580,1600
15.5600,1728
15.5620,1296
15.5640,1440
15.5660,1616
15.5680,1616
15.5700,2864
15.5720,3408
15.5740,1344
15.5760,1312
15.5780,1248
15.5800,1168
15.5820,1600
15.5840,2064
15.5860,2544
15.5880,1040
15.5900,5873
15.5920,8594
15.5940,1968
15.5960,1472
15.5980,1072
15.6000,1600
15.6020,3552
15.6040,1952
15.6060,1584
15.6080,3088
15.6100,1520
15.6120,1344
15.6140,1056
15.6160,1520
15.6180,2208
15.6200,1104
15.6220,1920
15.6240,1552
15.6260,1088
15.6280,1536
15.6300,1728
15.6320,944
15.6340,5377
15.6360,5969
15.6380,4945
15.6400,1312
15.6420,1232
15.6440,1600
15.6460,1936
15.6480,2128
15.6500,4161
15.6520,1504
15.6540,5793
15.6560,2640
15.6580,1280
15.6600,1744
15.6620,5441
15.6640,1744
15.6660,1488
15.6680,1504
15.6700,1600
15.6720,2272
15.6740,1344
15.6760,2000
15.6780,2784
15.6800,1328
15.6820,1792
15.6840,1168
15.6860,1216
15.6880,1360
15.6900,3616
15.6920,2224
15.6940,1472
15.6960,1568
15.6980,1056
15.7000,5713
15.7020,3232
15.7040,2880
15.7060,7473
15.7080,9810
15.7100,1728
15.7120,2480
15.7140,2624
15.7160,1408
15.7180,1168
15.7200,1072
15.7220,1728
15.7240,1440
15.7260,3504
15.7280,10946
15.7300,1568
15.7320,1632
15.7340,1680
15.7360,1328
15.7380,1552
15.7400,1680
15.7420,1328
15.7440,1904
15.7460,1152
15.7480,1936
15.7500,1424
15.7520,1760
15.7540,3088
15.7560,1664
15.7580,1952
15.7600,3200
15.7620,1760
15.7640,1760
15.7660,1568
15.7680,2464
15.7700,1696
15.7720,2160
15.7740,1216
15.7760,3248
15.7780,1728
15.7800,2272
15.7820,1136
15.7840,2064
15.7860,6577
15.7880,4305
15.7900,1600
15.7920,1712
15.7940,1520
15.7960,1040
15.7980,1408
15.8000,1984
15.8020,1472
15.8040,2704
15.8060,4545
15.8080,1552
15.8100,1040
15.8120,1664
15.8140,1616
15.8160,1408
15.8180,1440
15.8200,8129
15.8220,3280
15.8240,1584
15.8260,4177
15.8280,8177
15.8300,1376
15.8320,1888
15.8340,1760
15.8360,1728
15.8380,1344
15.8400,1312
15.8420,1216
15.8440,2144
15.8460,1312
15.8480,3120
15.8500,1296
15.8520,2352
15.8540,2320
15.8560,1984
15.8580,1440
15.8600,1632
15.8620,1472
15.8640,1664
15.8660,3264
15.8680,1248
15.8700,1904
15.8720,1280
15.8740,2064
15.8760,1328
15.8780,2048
15.8800,2432
15.8820,4785
15.8840,2256
15.8860,2256
15.8880,3248
15.8900,2816
15.8920,1328
15.8940,2992
15.8960,3888
15.8980,1952
15.9000,2320
15.9020,1776
15.9040,1168
15.9060,2256
15.9080,1888
15.9100,3872
15.9120,6417
15.9140,3568
15.9160,3120
15.9180,3296
15.9200,2880
15.9220,2448
15.9240,1552
15.9260,2704
15.9280,2288
15.9300,2368
15.9320,1376
15.9340,1392
15.9360,3008
15.9380,2016
15.9400,2224
15.9420,1600
15.9440,1120
15.9460,2944
15.9480,3168
15.9500,1280
15.9520,1776
15.9540,1840
15.9560,1568
15.9580,1424
15.9600,1120
15.9620,1360
15.9640,1808
15.9660,6257
15.9680,3488
15.9700,1440
15.9720,5713
15.9740,1200
15.9760,1840
15.9780,2336
15.9800,1152
15.9820,1184
15.9840,3216
15.9860,1440
15.9880,7745
15.9900,1568
15.9920,2832
15.9940,1216
15.9960,5137
15.9980,2192
16.0000,1376
16.0020,2512
16.0040,2832
16.0060,1216
16.0080,3168
16.0100,1296
16.0120,1312
16.0140,2576
16.0160,3360
16.0180,7377
16.0200,5985
16.0220,1584
16.0240,2512
16.0260,2368
16.0280,4545
16.0300,1344
16.0320,2464
16.0340,1360
16.0360,1360
16.0380,1424
16.0400,1696
16.0420,1216
16.0440,1488
16.0460,1344
16.0480,1696
16.0500,1680
16.0520,2224
16.0540,1504
16.0560,1424
16.0580,1232
16.0600,7905
16.0620,9858
16.0640,1664
16.0660,2704
16.0680,1680
16.0700,1968
16.0720,1280
16.0740,2816
16.0760,2352
16.0780,1328
16.0800,1408
16.0820,5137
16.0840,2720
16.0860,4032
16.0880,1184
16.0900,3520
16.0920,8594
16.0940,1568
16.0960,1520
16.0980,1248
16.1000,1744
16.1020,2672
16.1040,1408
16.1060,2096
16.1080,2112
16.1100,1344
16.1120,2112
16.1140,1952
16.1160,6705
16.1180,3008
16.1200,2784
16.1220,1840
16.1240,2272
16.1260,3776
16.1280,1424
16.1300,1856
16.1320,5153
16.1340,2128
16.1360,5201
16.1380,8113
16.1400,1744
16.1420,14739
16.1440,12323
16.1460,1936
16.1480,1712
16.1500,1536
16.1520,2352
16.1540,3200
16.1560,2752
16.1580,2048
16.1600,2736
16.1620,2128
16.1640,1504
16.1660,2208
16.1680,2016
16.1700,8786
16.1720,1792
16.1740,2224
16.1760,1472
16.1780,1248
16.1800,2688
16.1820,2848
16.1840,7521
16.1860,4080
16.1880,1472
16.1900,2224
16.1920,2480
16.1940,1616
16.1960,2224
16.1980,2624
16.2000,3728
16.2020,2688
16.2040,1872
16.2060,3712
16.2080,1728
16.2100,4417
16.2120,1952
16.2140,2128
16.2160,1696
16.2180,2016
16.2200,7649
16.2220,3296
16.2240,3808
16.2260,3808
16.2280,8962
16.2300,4080
16.2320,1264
16.2340,10386
16.2360,4689
16.2380,2480
16.2400,1696
16.2420,2432
16.2440,6817
16.2460,6945
16.2480,1568
16.2500,2976
16.2520,4161
16.2540,3136
16.2560,2608
16.2580,5681
16.2600,2624
16.2620,7073
16.2640,3216
16.2660,5137
16.2680,4689
16.2700,17668
16.2720,7921
16.2740,5729
16.2760,8113
16.2780,2176
16.2800,2464
16.2820,8466
16.2840,3168
16.2860,6513
16.2880,3600
16.2900,3216
16.2920,2432
16.2940,5313
16.2960,5665
16.2980,3536
16.3000,11042
16.3020,4753
16.3040,3776
16.3060,1696
16.3080,9954
16.3100,6049
16.3120,2288
16.3140,6017
16.3160,3664
16.3180,1904
16.3200,3136
16.3220,9730
16.3240,16019
16.3260,1728
16.3280,9554
16.3300,6273
16.3320,8258
16.3340,1328
16.3360,1984
16.3380,1472
16.3400,3136
16.3420,8754
16.3440,3536
16.3460,22693
16.3480,3072
16.3500,5329
16.3520,1232
16.3540,8514
16.3560,1440
16.3580,8177
16.3600,4481
16.3620,6753
16.3640,4897
16.3660,4625
16.3680,2544
16.3700,6529
16.3720,2736
16.3740,1888
16.3760,1696
16.3780,2224
16.3800,3008
16.3820,3808
16.3840,8081
16.3860,5777
16.3880,2304
16.3900,5681
16.3920,6273
16.3940,7217
16.3960,2992
16.3980,1840
16.4000,4161
16.4020,19700
16.4040,12002
16.4060,5377
16.4080,1568
16.4100,4753
16.4120,8546
16.4140,4417
16.4160,2592
16.4180,40953
16.4200,6961
16.4220,2304
16.4240,15955
16.4260,2240
16.4280,12387
16.4300,1472
16.4320,18660
16.4340,6033
16.4360,2640
16.4380,15427
16.4400,2960
16.4420,1808
16.4440,5921
16.4460,9634
16.4480,1184
16.4500,7345
16.4520,1888
16.4540,9202
16.4560,6033
16.4580,14643
16.4600,4177
16.4620,12723
16.4640,12419
16.4660,1888
16.4680,4449
16.4700,9058
16.4720,2736
16.4740,23525
16.4760,14707
16.4780,6577
16.4800,2080
16.4820,3568
16.4840,4833
16.4860,5025
16.4880,2208
16.4900,21045
16.4920,1792
16.4940,1616
16.4960,3808
16.4980,8177
16.5000,2784
16.5020,2368
16.5040,37849
16.5060,56893
16.5080,26022
16.5100,2528
16.5120,5665
16.5140,4497
16.5160,1712
16.5180,1824
16.5200,4064
16.5220,3664
16.5240,16868
16.5260,11666
16.5280,5425
16.5300,6337
16.5320,4048
16.5340,5297
16.5360,2336
16.5380,1840
16.5400,7041
16.5420,8177
16.5440,5105
16.5460,5505
16.5480,1680
16.5500,3616
16.5520,1424
16.5540,5665
16.5560,5569
16.5580,18788
16.5600,1360
16.5620,6353
16.5640,10210
16.5660,21893
16.5680,2512
16.5700,9298
16.5720,4673
16.5740,14739
16.5760,23221
16.5780,1712
16.5800,13971
16.5820,5937
16.5840,1664
16.5860,8177
16.5880,9874
16.5900,3472
16.5920,9618
16.5940,3792
16.5960,13715
16.5980,9010
16.6000,1840
16.6020,14275
16.6040,10114
16.6060,6929
16.6080,2624
16.6100,5009
16.6120,5281
16.6140,10402
16.6160,2176
16.6180,16163
16.6200,4993
16.6220,2000
16.6240,31287
16.6260,7137
16.6280,2704
16.6300,1536
16.6320,4929
16.6340,13875
16.6360,6593
16.6380,21941
16.6400,14147
16.6420,15699
16.6440,6625
16.6460,3648
16.6480,27366
16.6500,38569
16.6520,9618
16.6540,5025
16.6560,6241
16.6580,21509
16.6600,8194
16.6620,3840
16.6640,7873
16.6660,3712
16.6680,12371
16.6700,13779
16.6720,36953
16.6740,29847
16.6760,2176
16.6780,4737
16.6800,10962
16.6820,7057
16.6840,9250
16.6860,10210
16.6880,1664
16.6900,4064
16.6920,4193
16.6940,7985
16.6960,11538
16.6980,9362
16.7000,2592
16.7020,6689
16.7040,9650
16.7060,11666
16.7080,10930
16.7100,3488
16.7120,4609
16.7140,1488
16.7160,15427
16.7180,21381
16.7200,8514
16.7220,4000
16.7240,13155
16.7260,3888
16.7280,15299
16.7300,3328
16.7320,9154
16.7340,9938
16.7360,16388
16.7380,1744
16.7400,5073
16.7420,2944
16.7440,13875
16.7460,1872
16.7480,23045
16.7500,18356
16.7520,2512
16.7540,3008
16.7560,2400
16.7580,14643
16.7600,2112
16.7620,16788
16.7640,2688
16.7660,8658
16.7680,34888
16.7700,6625
16.7720,6913
16.7740,17572
16.7760,6785
16.7780,10754
16.7800,4225
16.7820,30503
16.7840,14275
16.7860,5601
16.7880,6081
16.7900,7377
16.7920,2352
16.7940,6625
16.7960,10146
16.7980,10850
16.8000,12947
16.8020,2704
16.8040,4241
16.8060,5057
16.8080,2512
16.8100,30647
16.8120,24918
16.8140,2560
16.8160,13715
16.8180,7841
16.8200,15251
16.8220,19268
16.8240,15411
16.8260,9186
16.8280,14435
16.8300,2480
16.8320,5249
16.8340,9826
16.8360,28230
16.8380,21317
16.8400,38329
16.8420,37001
16.8440,6497
16.8460,1472
16.8480,4769
16.8500,21813
16.8520,3584
16.8540,13907
16.8560,40953
16.8580,10434
16.8600,18644
16.8620,48923
16.8640,1808
16.8660,2208
16.8680,5825
16.8700,2960
16.8720,13539
16.8740,28807
16.8760,28759
16.8780,13827
16.8800,25926
16.8820,24710
16.8840,2640
16.8860,5473
16.8880,33096
16.8900,1952
16.8920,2896
16.8940,18180
16.8960,14915
16.8980,5921
16.9000,21765
16.9020,11730
16.9040,5009
16.9060,19140
16.9080,10690
16.9100,4833
16.9120,41146
16.9140,19556
16.9160,32071
16.9180,6465
16.9200,21061
16.9220,3424
16.9240,2336
16.9260,23893
16.9280,9170
16.9300,2464
16.9320,8706
16.9340,2880
16.9360,1568
16.9380,4641
16.9400,10770
16.9420,2880
16.9440,3072
16.9460,13251
16.9480,12130
16.9500,19076
16.9520,8113
16.9540,24485
16.9560,14259
16.9580,2896
16.9600,22949
16.9620,19876
16.9640,5761
16.9660,19572
16.9680,16339
16.9700,23237
16.9720,2016
16.9740,15907
16.9760,3456
16.9780,16836
16.9800,6161
16.9820,6961
16.9840,28374
16.9860,2784
16.9880,11986
16.9900,11602
16.9920,3248
16.9940,1760
16.9960,11730
16.9980,4529
17.0000,13091
17.0020,1712
17.0040,3024
17.0060,4289
17.0080,3776
17.0100,1280
17.0120,3728
17.0140,7569
17.0160,13331
17.0180,2048
17.0200,5441
17.0220,28406
17.0240,9106
17.0260,1472
17.0280,2768
17.0300,2176
17.0320,24117
17.0340,4369
17.0360,4657
17.0380,6065
17.0400,11074
17.0420,8450
17.0440,3024
17.0460,9346
17.0480,9394
17.0500,1488
17.0520,15635
17.0540,2864
17.0560,25878
17.0580,3360
17.0600,17156
17.0620,14419
17.0640,17892
17.0660,3680
17.0680,7489
17.0700,17076
17.0720,11138
17.0740,22325
17.0760,3088
17.0780,19508
17.0800,16564
17.0820,1984
17.0840,26982
17.0860,6065
17.0880,2096
17.0900,5265
17.0920,7905
17.0940,1856
17.0960,7489
17.0980,2176
17.1000,38313
17.1020,5905
17.1040,15315
17.1060,1808
17.1080,1760
17.1100,9218
17.1120,2304
17.1140,8242
17.1160,2320
17.1180,4609
17.1200,13267
17.1220,12499
17.1240,6721
17.1260,1440
17.1280,1888
17.1300,1680
17.1320,2336
17.1340,4609
17.1360,4369
17.1380,1456
17.1400,6833
17.1420,16307
17.1440,10130
17.1460,11426
17.1480,23749
17.1500,24405
17.1520,2096
17.1540,25190
17.1560,12291
17.1580,3488
17.1600,9570
17.1620,11298
17.1640,8866
17.1660,18964
17.1680,11186
17.1700,5073
17.1720,2880
17.1740,2992
17.1760,5857
17.1780,5953
17.1800,3424
17.1820,4225
17.1840,5793
17.1860,2464
17.1880,14403
17.1900,22869
17.1920,14435
17.1940,4257
17.1960,13475
17.1980,1440
17.2000,14803
17.2020,6321
17.2040,6913
17.2060,1888
17.2080,26550
17.2100,3216
17.2120,10946
17.2140,5089
17.2160,1776
17.2180,5377
17.2200,10370
17.2220,2784
17.2240,33672
17.2260,11442
17.2280,4833
17.2300,2096
17.2320,46299
17.2340,41018
17.2360,25782
17.2380,2192
17.2400,14947
17.2420,9010
17.2440,9554
17.2460,3136
17.2480,1936
17.2500,28614
17.2520,13475
17.2540,11138
17.2560,1776
17.2580,3840
17.2600,13715
17.2620,6081
17.2640,8706
17.2660,2000
17.2680,2688
17.2700,12162
17.2720,35688
17.2740,10786
17.2760,1504
17.2780,8177
17.2800,11186
17.2820,9170
17.2840,3312
17.2860,5041
17.2880,10146
17.2900,7265
17.2920,13859
17.2940,1856
17.2960,4801
17.2980,5409
17.3000,3856
17.3020,14179
17.3040,8033
17.3060,4705
17.3080,1952
17.3100,3600
17.3120,17396
17.3140,4177
17.3160,27446
17.3180,21973
17.3200,1600
17.3220,1888
17.3240,6689
17.3260,3152
17.3280,11074
17.3300,1712
17.3320,12050
17.3340,7409
17.3360,2480
17.3380,2256
17.3400,9314
17.3420,12547
17.3440,3232
17.3460,4241
17.3480,5153
17.3500,19812
17.3520,16404
17.3540,17604
17.3560,20565
17.3580,20821
17.3600,2560
17.3620,1760
17.3640,11090
17.3660,11810
17.3680,17092
17.3700,9058
17.3720,14019
17.3740,3120
17.3760,13699
17.3780,8177
17.3800,2448
17.3820,1216
17.3840,23333
17.3860,2848
17.3880,5249
17.3900,7425
17.3920,2320
17.3940,5057
17.3960,5201
17.3980,35128
17.4000,3920
17.4020,16596
17.4040,2864
17.4060,2112
17.4080,1712
17.4100,10850
17.4120,5889
17.4140,2608
17.4160,16820
17.4180,11426
17.4200,16788
17.4220,2080
17.4240,5969
17.4260,5777
17.4280,2176
17.4300,2384
17.4320,14275
17.4340,2576
17.4360,15523
17.4380,9090
17.4400,10914
17.4420,1520
17.4440,15939
17.4460,1728
17.4480,1808
17.4500,1664
17.4520,20565
17.4540,1712
17.4560,2272
17.4580,5393
17.4600,5137
17.4620,5057
17.4640,2256
17.4660,15251
17.4680,2608
17.4700,4801
17.4720,11778
17.4740,8466
17.4760,11538
17.4780,9938
17.4800,4481
17.4820,5857
17.4840,7697
17.4860,16772
17.4880,7441
17.4900,19940
17.4920,7713
17.4940,3120
17.4960,5857
17.4980,5761
17.5000,3152
17.5020,2496
17.5040,1472
17.5060,8113
17.5080,22917
17.5100,7041
17.5120,25046
17.5140,6833
17.5160,1696
17.5180,12162
17.5200,15011
17.5220,13635
17.5240,5953
17.5260,10882
17.5280,3008
17.5300,10082
17.5320,7953
17.5340,6417
17.5360,7921
17.5380,1728
17.5400,2784
17.5420,20485
17.5440,9362
17.5460,6881
17.5480,15779
17.5500,2352
17.5520,2656
17.5540,8530
17.5560,4193
17.5580,1744
17.5600,18724
17.5620,14739
17.5640,13235
17.5660,24213
17.5680,17108
17.5700,27078
17.5720,12467
17.5740,15699
17.5760,18980
17.5780,6353
17.5800,4016
17.5820,10338
17.5840,11426
17.5860,13619
17.5880,5409
17.5900,1872
17.5920,2112
17.5940,5889
17.5960,12979
17.5980,2400
17.6000,20757
17.6020,4769
17.6040,1920
17.6060,8866
17.6080,1920
17.6100,4545
17.6120,1952
17.6140,6641
17.6160,7713
17.6180,18756
17.6200,6401
17.6220,9122
17.6240,24469
17.6260,10322
17.6280,4177
17.6300,4080
17.6320,13123
17.6340,31927
17.6360,10930
17.6380,3488
17.6400,2224
17.6420,2784
17.6440,14739
17.6460,4529
17.6480,2256
17.6500,12291
17.6520,24870
17.6540,1808
17.6560,2832
17.6580,22629
17.6600,4801
17.6620,31559
17.6640,16051
17.6660,1888
17.6680,2848
17.6700,1360
17.6720,19764
17.6740,1712
17.6760,4833
17.6780,2544
17.6800,7217
17.6820,4993
17.6840,5825
17.6860,1744
17.6880,9970
17.6900,19860
17.6920,5649
17.6940,24598
17.6960,11250
17.6980,2224
17.7000,11362
17.7020,1200
17.7040,10914
17.7060,3648
17.7080,5793
17.7100,1280
17.7120,3472
17.7140,6785
17.7160,15763
17.7180,2256
17.7200,13139
17.7220,6017
17.7240,7457
17.7260,3152
17.7280,8274
17.7300,2624
17.7320,1536
17.7340,2016
17.7360,6545
17.7380,5073
17.7400,4353
17.7420,11090
17.7440,8610
17.7460,4145
17.7480,3856
17.7500,11586
17.7520,18692
17.7540,3120
17.7560,20901
17.7580,11202
17.7600,2304
17.7620,8354
17.7640,15027
17.7660,1936
17.7680,6593
17.7700,14019
17.7720,4145
17.7740,5793
17.7760,16852
17.7780,8226
17.7800,1344
17.7820,1808
17.7840,22837
17.7860,4000
17.7880,7313
17.7900,1904
17.7920,8274
17.7940,2448
17.7960,6433
17.7980,1504
17.8000,5985
17.8020,1744
17.8040,2752
17.8060,16083
17.8080,18244
17.8100,4977
17.8120,1936
17.8140,2752
17.8160,1584
17.8180,12034
17.8200,1856
17.8220,9778
17.8240,14131
17.8260,18868
17.8280,9906
17.8300,2528
17.8320,3600
17.8340,1760
17.8360,3904
17.8380,2192
17.8400,21989
17.8420,17604
17.8440,6241
17.8460,12355
17.8480,18580
17.8500,4193
17.8520,12547
17.8540,13475
17.8560,9682
17.8580,3152
17.8600,1888
17.8620,13123
17.8640,3360
17.8660,2592
17.8680,10066
17.8700,1408
17.8720,13315
17.8740,14211
17.8760,14803
17.8780,23317
17.8800,6625
17.8820,2368
17.8840,5121
17.8860,26726
17.8880,4593
17.8900,3232
17.8920,2608
17.8940,8274
17.8960,3264
17.8980,8113
17.9000,9058
17.9020,31335
17.9040,4513
17.9060,3040
17.9080,1712
17.9100,13699
17.9120,2896
17.9140,1856
17.9160,1488
17.9180,2832
17.9200,8514
17.9220,1536
17.9240,8754
17.9260,15651
17.9280,3664
17.9300,9122
17.9320,14115
17.9340,8754
17.9360,4673
17.9380,22149
17.9400,6225
17.9420,6945
17.9440,2432
17.9460,2832
17.9480,2608
17.9500,8530
17.9520,8754
17.9540,6913
17.9560,4257
17.9580,3152
17.9600,12291
17.9620,14211
17.9640,8834
17.9660,15459
17.9680,2720
17.9700,1952
17.9720,9234
17.9740,10146
17.9760,4273
17.9780,3472
17.9800,4865
17.9820,5297
17.9840,11842
17.9860,5329
17.9880,13571
17.9900,13459
17.9920,2000
17.9940,3232
17.9960,5713
17.9980,3552
18.0000,6657
18.0020,1168
18.0040,5201
18.0060,5441
18.0080,12194
18.0100,7073
18.0120,20388
18.0140,6305
18.0160,16371
18.0180,12579
18.0200,4417
18.0220,19540
18.0240,3696
18.0260,10914
18.0280,2576
18.0300,11442
18.0320,4945
18.0340,5233
18.0360,1872
18.0380,1680
18.0400,2512
18.0420,10002
18.0440,4785
18.0460,7185
18.0480,16003
18.0500,5553
18.0520,1936
18.0540,8177
18.0560,3872
18.0580,1968
18.0600,2784
18.0620,1936
18.0640,5649
18.0660,4545
18.0680,5185
18.0700,17204
18.0720,4113
18.0740,1872
18.0760,10850
18.0780,12835
18.0800,2080
18.0820,14803
18.0840,7809
18.0860,21557
18.0880,3504
18.0900,5617
18.0920,6113
18.0940,1760
18.0960,1840
18.0980,11362
18.1000,16484
18.1020,8145
18.1040,15155
18.1060,3296
18.1080,8994
18.1100,2576
18.1120,1728
18.1140,28038
18.1160,3296
18.1180,16580
18.1200,17444
18.1220,8418
18.1240,11714
18.1260,2928
18.1280,3328
18.1300,8802
18.1320,4753
18.1340,1360
18.1360,1776
18.1380,22501
18.1400,4113
18.1420,3968
18.1440,13075
18.1460,9666
18.1480,11042
18.1500,1824
18.1520,19460
18.1540,2240
18.1560,2064
18.1580,2480
18.1600,3232
18.1620,14259
18.1640,1936
18.1660,2064
18.1680,14547
18.1700,1440
18.1720,2944
18.1740,13683
18.1760,4497
18.1780,16227
18.1800,27526
18.1820,3328
18.1840,11458
18.1860,7553
18.1880,15203
18.1900,3520
18.1920,6993
18.1940,3904
18.1960,15091
18.1980,5841
18.2000,2880
18.2020,12098
18.2040,6545
18.2060,3088
18.2080,9554
18.2100,3392
18.2120,5169
18.2140,1072
18.2160,2304
18.2180,9378
18.2200,5201
18.2220,26166
18.2240,19892
18.2260,16388
18.2280,3744
18.2300,6497
18.2320,8194
18.2340,5025
18.2360,5809
18.2380,3376
18.2400,1664
18.2420,19604
18.2440,12515
18.2460,2256
18.2480,2880
18.2500,28150
18.2520,37561
18.2540,11346
18.2560,1872
18.2580,2352
18.2600,4945
18.2620,5377
18.2640,7681
18.2660,9570
18.2680,22677
18.2700,5425
18.2720,9522
18.2740,2000
18.2760,27478
18.2780,6577
18.2800,4369
18.2820,5281
18.2840,3520
18.2860,4401
18.2880,2768
18.2900,2080
18.2920,1344
18.2940,4177
18.2960,2080
18.2980,2048
18.3000,1824
18.3020,11874
18.3040,1616
18.3060,10546
18.3080,4177
18.3100,2608
18.3120,2208
18.3140,8161
18.3160,1968
18.3180,4497
18.3200,5153
18.3220,8386
18.3240,22277
18.3260,6609
18.3280,18612
18.3300,2400
18.3320,10050
18.3340,2464
18.3360,10626
18.3380,13331
18.3400,4705
18.3420,5329
18.3440,3008
18.3460,2112
18.3480,1472
18.3500,2112
18.3520,1568
18.3540,4865
18.3560,13683
18.3580,7713
18.3600,4080
18.3620,2832
18.3640,1696
18.3660,7985
18.3680,7361
18.3700,9778
18.3720,1536
18.3740,10674
18.3760,21653
18.3780,24565
18.3800,19028
18.3820,1680
18.3840,20260
18.3860,10498
18.3880,2448
18.3900,1696
18.3920,6481
18.3940,1376
18.3960,8578
18.3980,1648
18.4000,3040
18.4020,1488
18.4040,11362
18.4060,1744
18.4080,19812
18.4100,2320
18.4120,2544
18.4140,21781
18.4160,5041
18.4180,3216
18.4200,3936
18.4220,5009
18.4240,11986
18.4260,3440
18.4280,1888
18.4300,23093
18.4320,7889
18.4340,8049
18.4360,12307
18.4380,1824
18.4400,1712
18.4420,7393
18.4440,4273
18.4460,4673
18.4480,2192
18.4500,7185
18.4520,10290
18.4540,8129
18.4560,1872
18.4580,3152
18.4600,1776
18.4620,5521
18.4640,4064
18.4660,3568
18.4680,1952
18.4700,5521
18.4720,2176
18.4740,3152
18.4760,7057
18.4780,2384
18.4800,9218
18.4820,5937
18.4840,2144
18.4860,15427
18.4880,7713
18.4900,4897
18.4920,3408
18.4940,4625
18.4960,13459
18.4980,13667
18.5000,3536
18.5020,2384
18.5040,4609
18.5060,2304
18.5080,5729
18.5100,2784
18.5120,12066
18.5140,2240
18.5160,9730
18.5180,14691
18.5200,15203
18.5220,10562
18.5240,13795
18.5260,2352
18.5280,2272
18.5300,6305
18.5320,10514
18.5340,1520
18.5360,8770
18.5380,2144
18.5400,9234
18.5420,21285
18.5440,8418
18.5460,13491
18.5480,2528
18.5500,2448
18.5520,7553
18.5540,2256
18.5560,1696
18.5580,2896
18.5600,2224
18.5620,1712
18.5640,1472
18.5660,4865
18.5680,11362
18.5700,5521
18.5720,3520
18.5740,2592
18.5760,2448
18.5780,2224
18.5800,4401
18.5820,1392
18.5840,4097
18.5860,12050
18.5880,17092
18.5900,1440
18.5920,16371
18.5940,2400
18.5960,9538
18.5980,13475
18.6000,3584
18.6020,11586
18.6040,18308
18.6060,8049
18.6080,1808
18.6100,2592
18.6120,6209
18.6140,10306
18.6160,4705
18.6180,10050
18.6200,1840
18.6220,3776
18.6240,10130
18.6260,2736
18.6280,12691
18.6300,8370
18.6320,4145
18.6340,11618
18.6360,1552
18.6380,7873
18.6400,2448
18.6420,4305
18.6440,23621
18.6460,2384
18.6480,14995
18.6500,5873
18.6520,22405
18.6540,8258
18.6560,1760
18.6580,2880
18.6600,9106
18.6620,16660
18.6640,3648
18.6660,6977
18.6680,4353
18.6700,8370
18.6720,17332
18.6740,11970
18.6760,15523
18.6780,1712
18.6800,8210
18.6820,15059
18.6840,16404
18.6860,1280
18.6880,17220
18.6900,1328
18.6920,11042
18.6940,14355
18.6960,23253
18.6980,3088
18.7000,17220
18.7020,10450
18.7040,4417
18.7060,5921
18.7080,2112
18.7100,11618
18.7120,1344
18.7140,4721
18.7160,8177
18.7180,3248
18.7200,8706
18.7220,7825
18.7240,6273
18.7260,10466
18.7280,2592
18.7300,2016
18.7320,1888
18.7340,16564
18.7360,17300
18.7380,2096
18.7400,1824
18.7420,1376
18.7440,19460
18.7460,4641
18.7480,15747
18.7500,9234
18.7520,2800
18.7540,3888
18.7560,15795
18.7580,6113
18.7600,2192
18.7620,15635
18.7640,16788
18.7660,1952
18.7680,13043
18.7700,1216
18.7720,4433
18.7740,5937
18.7760,5793
18.7780,2688
18.7800,17716
18.7820,4289
18.7840,16420
18.7860,8274
18.7880,20180
18.7900,8177
18.7920,9522
18.7940,18068
18.7960,2512
18.7980,4337
18.8000,12627
18.8020,2016
18.8040,8722
18.8060,3344
18.8080,8001
18.8100,16275
18.8120,8033
18.8140,20965
18.8160,4689
18.8180,1408
18.8200,2848
18.8220,4801
18.8240,1824
18.8260,15155
18.8280,11426
18.8300,19940
18.8320,6849
18.8340,2432
18.8360,16115
18.8380,5425
18.8400,11842
18.8420,7425
18.8440,5809
18.8460,1808
18.8480,3840
18.8500,11074
18.8520,12595
18.8540,14771
18.8560,6689
18.8580,16644
18.8600,5889
18.8620,7473
18.8640,3840
18.8660,5681
18.8680,3200
18.8700,1824
18.8720,6017
18.8740,9602
18.8760,2128
18.8780,6465
18.8800,4577
18.8820,1920
18.8840,4673
18.8860,3152
18.8880,15763
18.8900,8258
18.8920,17188
18.8940,2304
18.8960,10338
18.8980,3136
18.9000,4064
18.9020,10770
18.9040,2736
18.9060,6145
18.9080,5025
18.9100,6177
18.9120,16211
18.9140,9186
18.9160,1648
18.9180,5457
18.9200,1712
18.9220,6033
18.9240,22773
18.9260,13699
18.9280,5137
18.9300,6081
18.9320,4609
18.9340,6865
18.9360,2576
18.9380,6369
18.9400,23765
18.9420,11682
18.9440,3984
18.9460,1792
18.9480,9250
18.9500,2624
18.9520,13107
18.9540,7601
18.9560,3648
18.9580,8514
18.9600,2000
18.9620,3200
18.9640,1680
18.9660,8610
18.9680,1488
18.9700,1408
18.9720,7393
18.9740,8850
18.9760,28807
18.9780,21941
18.9800,2016
18.9820,10322
18.9840,4161
18.9860,10274
18.9880,22549
18.9900,14899
18.9920,18516
18.9940,14323
18.9960,6977
18.9980,1680
19.0000,11234
19.0020,4305
19.0040,2080
19.0060,6593
19.0080,12130
19.0100,6321
19.0120,3936
19.0140,4321
19.0160,5697
19.0180,7905
19.0200,3744
19.0220,6449
19.0240,18660
19.0260,18180
19.0280,6449
19.0300,2304
19.0320,15475
19.0340,4417
19.0360,6625
19.0380,3888
19.0400,10066
19.0420,24966
19.0440,4369
19.0460,21029
19.0480,6689
19.0500,13891
19.0520,1328
19.0540,17204
19.0560,20388
19.0580,1600
19.0600,10418
19.0620,9506
19.0640,3632
19.0660,12883
19.0680,2656
19.0700,5649
19.0720,1328
19.0740,10930
19.0760,8033
19.0780,5905
19.0800,16964
19.0820,2128
19.0840,5729
19.0860,1552
19.0880,3328
19.0900,3072
19.0920,8914
19.0940,2288
19.0960,8978
19.0980,7425
19.1000,1472
19.1020,23093
19.1040,7889
19.1060,2512
19.1080,18708
19.1100,3376
19.1120,1792
19.1140,9042
19.1160,4705
19.1180,3728
19.1200,4449
19.1220,1936
19.1240,7841
19.1260,9282
19.1280,3952
19.1300,7105
19.1320,9186
19.1340,3616
19.1360,7505
19.1380,3760
19.1400,4177
19.1420,2240
19.1440,26310
19.1460,3088
19.1480,8017
19.1500,2416
19.1520,5025
19.1540,5041
19.1560,8546
19.1580,5329
19.1600,15027
19.1620,2352
19.1640,1984
19.1660,2832
