Tempo(s),EMG_Value
0.0000,1888
0.0020,0
0.0040,1472
0.0060,576
0.0080,1264
0.0100,1184
0.0120,432
0.0140,816
0.0160,592
0.0180,416
0.0200,1632
0.0220,832
0.0240,864
0.0260,640
0.0280,736
0.0300,576
0.0320,560
0.0340,736
0.0360,2592
0.0380,704
0.0400,912
0.0420,1040
0.0440,912
0.0460,3808
0.0480,4193
0.0500,848
0.0520,400
0.0540,784
0.0560,944
0.0580,576
0.0600,832
0.0620,1200
0.0640,672
0.0660,432
0.0680,1296
0.0700,944
0.0720,688
0.0740,896
0.0760,2064
0.0780,1616
0.0800,1040
0.0820,480
0.0840,1024
0.0860,480
0.0880,1504
0.0900,464
0.0920,848
0.0940,1152
0.0960,1840
0.0980,640
0.1000,1248
0.1020,1056
0.1040,976
0.1060,912
0.1080,736
0.1100,3408
0.1120,4881
0.1140,1968
0.1160,1184
0.1180,1328
0.1200,656
0.1220,2048
0.1240,1376
0.1260,1184
0.1280,768
0.1300,672
0.1320,2144
0.1340,1312
0.1360,768
0.1380,1424
0.1400,1616
0.1420,1232
0.1440,688
0.1460,1264
0.1480,800
0.1500,1440
0.1520,2544
0.1540,912
0.1560,1424
0.1580,576
0.1600,1008
0.1620,560
0.1640,1136
0.1660,640
0.1680,736
0.1700,2048
0.1720,1104
0.1740,768
0.1760,784
0.1780,2896
0.1800,7521
0.1820,2608
0.1840,944
0.1860,848
0.1880,640
0.1900,976
0.1920,304
0.1940,720
0.1960,2320
0.1980,1248
0.2000,1072
0.2020,304
0.2040,720
0.2060,2160
0.2080,928
0.2100,864
0.2120,736
0.2140,864
0.2160,800
0.2180,816
0.2200,4016
0.2220,608
0.2240,960
0.2260,720
0.2280,1920
0.2300,736
0.2320,3648
0.2340,528
0.2360,1328
0.2380,1168
0.2400,688
0.2420,688
0.2440,1264
0.2460,752
0.2480,880
0.2500,608
0.2520,416
0.2540,1088
0.2560,944
0.2580,1296
0.2600,608
0.2620,688
0.2640,992
0.2660,640
0.2680,976
0.2700,1200
0.2720,544
0.2740,848
0.2760,800
0.2780,1760
0.2800,544
0.2820,720
0.2840,1072
0.2860,752
0.2880,848
0.2900,1120
0.2920,1088
0.2940,1072
0.2960,592
0.2980,512
0.3000,688
0.3020,912
0.3040,432
0.3060,912
0.3080,1744
0.3100,960
0.3120,1488
0.3140,448
0.3160,544
0.3180,1184
0.3200,1872
0.3220,896
0.3240,704
0.3260,960
0.3280,896
0.3300,512
0.3320,4305
0.3340,896
0.3360,448
0.3380,736
0.3400,1664
0.3420,784
0.3440,6225
0.3460,3328
0.3480,1712
0.3500,1344
0.3520,896
0.3540,976
0.3560,688
0.3580,576
0.3600,1152
0.3620,976
0.3640,928
0.3660,560
0.3680,624
0.3700,2288
0.3720,944
0.3740,1936
0.3760,960
0.3780,1168
0.3800,800
0.3820,960
0.3840,512
0.3860,784
0.3880,912
0.3900,960
0.3920,1056
0.3940,1056
0.3960,608
0.3980,768
0.4000,64
0.4020,480
0.4040,1056
0.4060,816
0.4080,720
0.4100,736
0.4120,672
0.4140,704
0.4160,608
0.4180,784
0.4200,704
0.4220,672
0.4240,1248
0.4260,864
0.4280,784
0.4300,1808
0.4320,304
0.4340,1040
0.4360,944
0.4380,576
0.4400,3024
0.4420,2432
0.4440,5585
0.4460,1296
0.4480,928
0.4500,784
0.4520,528
0.4540,1952
0.4560,496
0.4580,1376
0.4600,1040
0.4620,1120
0.4640,720
0.4660,1408
0.4680,816
0.4700,480
0.4720,1088
0.4740,1184
0.4760,768
0.4780,560
0.4800,1680
0.4820,800
0.4840,960
0.4860,992
0.4880,1056
0.4900,1184
0.4920,640
0.4940,528
0.4960,1280
0.4980,1760
0.5000,448
0.5020,1056
0.5040,560
0.5060,896
0.5080,912
0.5100,2192
0.5120,1216
0.5140,560
0.5160,2256
0.5180,1168
0.5200,1088
0.5220,1024
0.5240,1296
0.5260,1056
0.5280,704
0.5300,1072
0.5320,592
0.5340,1152
0.5360,752
0.5380,2272
0.5400,848
0.5420,1328
0.5440,928
0.5460,752
0.5480,720
0.5500,688
0.5520,752
0.5540,800
0.5560,736
0.5580,768
0.5600,368
0.5620,480
0.5640,768
0.5660,912
0.5680,1024
0.5700,640
0.5720,1216
0.5740,544
0.5760,896
0.5780,816
0.5800,608
0.5820,768
0.5840,1072
0.5860,1248
0.5880,1616
0.5900,1104
0.5920,1632
0.5940,2048
0.5960,848
0.5980,1056
0.6000,1744
0.6020,944
0.6040,1808
0.6060,672
0.6080,1216
0.6100,784
0.6120,1152
0.6140,912
0.6160,784
0.6180,944
0.6200,960
0.6220,528
0.6240,944
0.6260,640
0.6280,704
0.6300,944
0.6320,560
0.6340,1840
0.6360,496
0.6380,2128
0.6400,1568
0.6420,784
0.6440,800
0.6460,816
0.6480,1088
0.6500,592
0.6520,1104
0.6540,672
0.6560,784
0.6580,3168
0.6600,768
0.6620,1248
0.6640,1408
0.6660,736
0.6680,800
0.6700,672
0.6720,720
0.6740,704
0.6760,1360
0.6780,1312
0.6800,784
0.6820,528
0.6840,896
0.6860,848
0.6880,4145
0.6900,1376
0.6920,1296
0.6940,640
0.6960,848
0.6980,512
0.7000,1232
0.7020,1168
0.7040,1152
0.7060,448
0.7080,448
0.7100,672
0.7120,544
0.7140,992
0.7160,1088
0.7180,1568
0.7200,768
0.7220,560
0.7240,832
0.7260,944
0.7280,592
0.7300,864
0.7320,928
0.7340,320
0.7360,864
0.7380,720
0.7400,736
0.7420,1488
0.7440,1072
0.7460,832
0.7480,1232
0.7500,736
0.7520,1104
0.7540,1552
0.7560,1200
0.7580,608
0.7600,928
0.7620,640
0.7640,1040
0.7660,704
0.7680,672
0.7700,1312
0.7720,1360
0.7740,1328
0.7760,992
0.7780,976
0.7800,3424
0.7820,2512
0.7840,1408
0.7860,848
0.7880,832
0.7900,832
0.7920,832
0.7940,816
0.7960,1104
0.7980,720
0.8000,560
0.8020,704
0.8040,2448
0.8060,1424
0.8080,2000
0.8100,832
0.8120,1104
0.8140,8962
0.8160,2320
0.8180,944
0.8200,1040
0.8220,736
0.8240,896
0.8260,912
0.8280,912
0.8300,1136
0.8320,464
0.8340,1088
0.8360,608
0.8380,608
0.8400,672
0.8420,1936
0.8440,1792
0.8460,720
0.8480,544
0.8500,464
0.8520,1040
0.8540,1936
0.8560,928
0.8580,784
0.8600,656
0.8620,736
0.8640,976
0.8660,1840
0.8680,448
0.8700,3136
0.8720,1120
0.8740,1120
0.8760,672
0.8780,1872
0.8800,832
0.8820,2000
0.8840,1888
0.8860,720
0.8880,768
0.8900,1024
0.8920,624
0.8940,720
0.8960,832
0.8980,944
0.9000,704
0.9020,1344
0.9040,800
0.9060,464
0.9080,496
0.9100,784
0.9120,784
0.9140,608
0.9160,960
0.9180,976
0.9200,1136
0.9220,640
0.9240,960
0.9260,1200
0.9280,784
0.9300,1056
0.9320,1040
0.9340,720
0.9360,720
0.9380,464
0.9400,784
0.9420,528
0.9440,1376
0.9460,864
0.9480,608
0.9500,1024
0.9520,6625
0.9540,3312
0.9560,1376
0.9580,784
0.9600,1712
0.9620,864
0.9640,576
0.9660,1040
0.9680,1456
0.9700,656
0.9720,1968
0.9740,720
0.9760,864
0.9780,896
0.9800,736
0.9820,640
0.9840,896
0.9860,880
0.9880,1120
0.9900,1040
0.9920,736
0.9940,800
0.9960,1024
0.9980,720
1.0000,688
1.0020,3216
1.0040,976
1.0060,736
1.0080,672
1.0100,592
1.0120,528
1.0140,640
1.0160,848
1.0180,1472
1.0200,704
1.0220,736
1.0240,1232
1.0260,768
1.0280,592
1.0300,1216
1.0320,832
1.0340,336
1.0360,4225
1.0380,944
1.0400,656
1.0420,656
1.0440,1952
1.0460,544
1.0480,464
1.0500,1712
1.0520,640
1.0540,848
1.0560,752
1.0580,416
1.0600,704
1.0620,560
1.0640,4241
1.0660,1072
1.0680,800
1.0700,1216
1.0720,816
1.0740,1296
1.0760,736
1.0780,928
1.0800,864
1.0820,880
1.0840,896
1.0860,720
1.0880,1136
1.0900,1472
1.0920,912
1.0940,992
1.0960,976
1.0980,656
1.1000,4129
1.1020,1184
1.1040,1280
1.1060,864
1.1080,1696
1.1100,1168
1.1120,672
1.1140,960
1.1160,1520
1.1180,848
1.1200,3296
1.1220,976
1.1240,672
1.1260,560
1.1280,1056
1.1300,512
1.1320,848
1.1340,544
1.1360,864
1.1380,1040
1.1400,1424
1.1420,656
1.1440,640
1.1460,1328
1.1480,608
1.1500,928
1.1520,3728
1.1540,560
1.1560,1472
1.1580,1104
1.1600,1440
1.1620,1360
1.1640,1760
1.1660,592
1.1680,896
1.1700,752
1.1720,1632
1.1740,576
1.1760,1088
1.1780,576
1.1800,912
1.1820,1856
1.1840,4497
1.1860,1408
1.1880,1024
1.1900,1264
1.1920,736
1.1940,592
1.1960,1040
1.1980,1136
1.2000,928
1.2020,400
1.2040,1072
1.2060,1072
1.2080,1344
1.2100,704
1.2120,512
1.2140,896
1.2160,4225
1.2180,720
1.2200,1264
1.2220,864
1.2240,688
1.2260,1904
1.2280,848
1.2300,784
1.2320,992
1.2340,1264
1.2360,704
1.2380,1328
1.2400,960
1.2420,848
1.2440,1648
1.2460,880
1.2480,1024
1.2500,1696
1.2520,608
1.2540,1888
1.2560,912
1.2580,1184
1.2600,1056
1.2620,1056
1.2640,2112
1.2660,880
1.2680,816
1.2700,1600
1.2720,1024
1.2740,816
1.2760,640
1.2780,1232
1.2800,944
1.2820,704
1.2840,832
1.2860,784
1.2880,2992
1.2900,832
1.2920,768
1.2940,1488
1.2960,560
1.2980,576
1.3000,1280
1.3020,2416
1.3040,832
1.3060,1104
1.3080,848
1.3100,656
1.3120,1056
1.3140,480
1.3160,976
1.3180,880
1.3200,864
1.3220,560
1.3240,784
1.3260,608
1.3280,448
1.3300,1824
1.3320,848
1.3340,1824
1.3360,1184
1.3380,752
1.3400,448
1.3420,1632
1.3440,704
1.3460,1072
1.3480,736
1.3500,848
1.3520,944
1.3540,752
1.3560,656
1.3580,384
1.3600,816
1.3620,1184
1.3640,1056
1.3660,1072
1.3680,960
1.3700,1168
1.3720,4321
1.3740,1344
1.3760,592
1.3780,1088
1.3800,1920
1.3820,1072
1.3840,1024
1.3860,1152
1.3880,1584
1.3900,720
1.3920,720
1.3940,1584
1.3960,608
1.3980,864
1.4000,2352
1.4020,672
1.4040,784
1.4060,928
1.4080,592
1.4100,592
1.4120,1312
1.4140,1328
1.4160,656
1.4180,848
1.4200,1408
1.4220,1008
1.4240,992
1.4260,528
1.4280,768
1.4300,1232
1.4320,528
1.4340,1088
1.4360,800
1.4380,560
1.4400,720
1.4420,656
1.4440,1408
1.4460,1360
1.4480,848
1.4500,1296
1.4520,928
1.4540,1120
1.4560,848
1.4580,1264
1.4600,1616
1.4620,1344
1.4640,800
1.4660,976
1.4680,704
1.4700,640
1.4720,656
1.4740,464
1.4760,816
1.4780,736
1.4800,480
1.4820,1680
1.4840,2192
1.4860,2080
1.4880,528
1.4900,912
1.4920,1008
1.4940,704
1.4960,1232
1.4980,1808
1.5000,1456
1.5020,832
1.5040,1056
1.5060,432
1.5080,960
1.5100,1440
1.5120,384
1.5140,736
1.5160,512
1.5180,1104
1.5200,1824
1.5220,1248
1.5240,1376
1.5260,832
1.5280,560
1.5300,1360
1.5320,672
1.5340,3472
1.5360,2096
1.5380,736
1.5400,608
1.5420,960
1.5440,688
1.5460,1104
1.5480,2176
1.5500,992
1.5520,528
1.5540,736
1.5560,944
1.5580,1344
1.5600,320
1.5620,768
1.5640,720
1.5660,448
1.5680,672
1.5700,1376
1.5720,1664
1.5740,688
1.5760,800
1.5780,1296
1.5800,800
1.5820,1344
1.5840,912
1.5860,752
1.5880,880
1.5900,752
1.5920,672
1.5940,832
1.5960,800
1.5980,624
1.6000,896
1.6020,912
1.6040,768
1.6060,992
1.6080,1168
1.6100,672
1.6120,800
1.6140,672
1.6160,656
1.6180,784
1.6200,1360
1.6220,640
1.6240,1248
1.6260,720
1.6280,1216
1.6300,576
1.6320,2752
1.6340,1120
1.6360,2240
1.6380,576
1.6400,928
1.6420,1280
1.6440,864
1.6460,704
1.6480,816
1.6500,992
1.6520,896
1.6540,736
1.6560,752
1.6580,1280
1.6600,1168
1.6620,752
1.6640,720
1.6660,832
1.6680,864
1.6700,512
1.6720,3792
1.6740,3744
1.6760,768
1.6780,736
1.6800,1168
1.6820,528
1.6840,608
1.6860,704
1.6880,656
1.6900,544
1.6920,800
1.6940,1312
1.6960,1104
1.6980,832
1.7000,1040
1.7020,672
1.7040,2816
1.7060,1072
1.7080,832
1.7100,992
1.7120,576
1.7140,944
1.7160,752
1.7180,1040
1.7200,704
1.7220,832
1.7240,736
1.7260,960
1.7280,1264
1.7300,352
1.7320,1296
1.7340,912
1.7360,800
1.7380,4113
1.7400,1184
1.7420,848
1.7440,832
1.7460,832
1.7480,784
1.7500,1520
1.7520,960
1.7540,640
1.7560,576
1.7580,832
1.7600,464
1.7620,656
1.7640,848
1.7660,560
1.7680,864
1.7700,944
1.7720,2368
1.7740,5921
1.7760,1216
1.7780,864
1.7800,832
1.7820,1120
1.7840,992
1.7860,1024
1.7880,384
1.7900,864
1.7920,1696
1.7940,1552
1.7960,1200
1.7980,720
1.8000,2640
1.8020,560
1.8040,640
1.8060,1072
1.8080,1568
1.8100,1296
1.8120,1344
1.8140,1424
1.8160,1248
1.8180,832
1.8200,3264
1.8220,1472
1.8240,2368
1.8260,3680
1.8280,560
1.8300,816
1.8320,816
1.8340,720
1.8360,592
1.8380,816
1.8400,1776
1.8420,2912
1.8440,448
1.8460,672
1.8480,768
1.8500,768
1.8520,768
1.8540,1152
1.8560,768
1.8580,736
1.8600,416
1.8620,944
1.8640,400
1.8660,640
1.8680,928
1.8700,656
1.8720,704
1.8740,1376
1.8760,608
1.8780,816
1.8800,736
1.8820,672
1.8840,2048
1.8860,608
1.8880,752
1.8900,1296
1.8920,2912
1.8940,1456
1.8960,3008
1.8980,880
1.9000,1824
1.9020,672
1.9040,1408
1.9060,1072
1.9080,736
1.9100,656
1.9120,816
1.9140,560
1.9160,816
1.9180,1184
1.9200,1536
1.9220,1072
1.9240,1104
1.9260,736
1.9280,1568
1.9300,688
1.9320,1152
1.9340,576
1.9360,1520
1.9380,928
1.9400,1184
1.9420,720
1.9440,816
1.9460,560
1.9480,2720
1.9500,640
1.9520,2624
1.9540,560
1.9560,1248
1.9580,1024
1.9600,992
1.9620,1424
1.9640,720
1.9660,912
1.9680,2304
1.9700,720
1.9720,992
1.9740,832
1.9760,1264
1.9780,720
1.9800,480
1.9820,752
1.9840,1024
1.9860,672
1.9880,672
1.9900,800
1.9920,1456
1.9940,640
1.9960,832
1.9980,1440
2.0000,800
2.0020,1600
2.0040,1584
2.0060,1168
2.0080,656
2.0100,1024
2.0120,2144
2.0140,5441
2.0160,560
2.0180,2304
2.0200,896
2.0220,1168
2.0240,800
2.0260,912
2.0280,1200
2.0300,736
2.0320,624
2.0340,1024
2.0360,1072
2.0380,864
2.0400,848
2.0420,288
2.0440,672
2.0460,672
2.0480,720
2.0500,1984
2.0520,720
2.0540,832
2.0560,432
2.0580,832
2.0600,784
2.0620,1232
2.0640,1248
2.0660,704
2.0680,992
2.0700,1280
2.0720,704
2.0740,896
2.0760,1200
2.0780,720
2.0800,1120
2.0820,1040
2.0840,704
2.0860,816
2.0880,592
2.0900,1696
2.0920,864
2.0940,800
2.0960,816
2.0980,880
2.1000,1072
2.1020,464
2.1040,576
2.1060,992
2.1080,1712
2.1100,768
2.1120,640
2.1140,624
2.1160,656
2.1180,800
2.1200,1184
2.1220,672
2.1240,960
2.1260,656
2.1280,816
2.1300,896
2.1320,688
2.1340,672
2.1360,6065
2.1380,3952
2.1400,832
2.1420,672
2.1440,1200
2.1460,800
2.1480,896
2.1500,1232
2.1520,848
2.1540,896
2.1560,848
2.1580,1088
2.1600,1040
2.1620,848
2.1640,832
2.1660,720
2.1680,1200
2.1700,704
2.1720,1072
2.1740,1824
2.1760,3344
2.1780,864
2.1800,1456
2.1820,1200
2.1840,816
2.1860,640
2.1880,1712
2.1900,3040
2.1920,784
2.1940,480
2.1960,960
2.1980,1472
2.2000,1520
2.2020,1040
2.2040,1200
2.2060,848
2.2080,848
2.2100,1328
2.2120,880
2.2140,592
2.2160,864
2.2180,656
2.2200,1104
2.2220,912
2.2240,720
2.2260,736
2.2280,608
2.2300,688
2.2320,800
2.2340,752
2.2360,432
2.2380,688
2.2400,960
2.2420,1152
2.2440,944
2.2460,816
2.2480,704
2.2500,1120
2.2520,896
2.2540,1856
2.2560,544
2.2580,1120
2.2600,1280
2.2620,8658
2.2640,7345
2.2660,944
2.2680,896
2.2700,3664
2.2720,2816
2.2740,896
2.2760,1248
2.2780,704
2.2800,784
2.2820,688
2.2840,736
2.2860,608
2.2880,544
2.2900,640
2.2920,1120
2.2940,608
2.2960,1472
2.2980,640
2.3000,1216
2.3020,432
2.3040,736
2.3060,1264
2.3080,976
2.3100,592
2.3120,848
2.3140,688
2.3160,1184
2.3180,1248
2.3200,944
2.3220,1088
2.3240,528
2.3260,560
2.3280,848
2.3300,608
2.3320,1296
2.3340,672
2.3360,784
2.3380,2320
2.3400,912
2.3420,1360
2.3440,1360
2.3460,688
2.3480,832
2.3500,512
2.3520,480
2.3540,736
2.3560,1040
2.3580,704
2.3600,544
2.3620,944
2.3640,1024
2.3660,672
2.3680,656
2.3700,768
2.3720,1600
2.3740,752
2.3760,624
2.3780,928
2.3800,912
2.3820,768
2.3840,944
2.3860,576
2.3880,5825
2.3900,5249
2.3920,1088
2.3940,480
2.3960,1040
2.3980,688
2.4000,944
2.4020,688
2.4040,672
2.4060,1360
2.4080,2320
2.4100,608
2.4120,768
2.4140,992
2.4160,800
2.4180,992
2.4200,1184
2.4220,1552
2.4240,1120
2.4260,864
2.4280,1088
2.4300,688
2.4320,736
2.4340,848
2.4360,1488
2.4380,1824
2.4400,816
2.4420,944
2.4440,864
2.4460,768
2.4480,640
2.4500,1104
2.4520,3168
2.4540,1472
2.4560,976
2.4580,592
2.4600,736
2.4620,944
2.4640,1168
2.4660,1088
2.4680,560
2.4700,1024
2.4720,768
2.4740,592
2.4760,1328
2.4780,912
2.4800,896
2.4820,800
2.4840,912
2.4860,848
2.4880,592
2.4900,848
2.4920,864
2.4940,896
2.4960,608
2.4980,1280
2.5000,1232
2.5020,480
2.5040,736
2.5060,928
2.5080,1616
2.5100,2912
2.5120,7217
2.5140,848
2.5160,704
2.5180,688
2.5200,672
2.5220,800
2.5240,1296
2.5260,720
2.5280,1152
2.5300,912
2.5320,784
2.5340,992
2.5360,1360
2.5380,1024
2.5400,1008
2.5420,1232
2.5440,960
2.5460,832
2.5480,720
2.5500,2208
2.5520,1040
2.5540,480
2.5560,704
2.5580,608
2.5600,608
2.5620,1200
2.5640,1152
2.5660,976
2.5680,4032
2.5700,1088
2.5720,656
2.5740,592
2.5760,1600
2.5780,656
2.5800,800
2.5820,576
2.5840,608
2.5860,672
2.5880,528
2.5900,1472
2.5920,864
2.5940,688
2.5960,1728
2.5980,800
2.6000,688
2.6020,704
2.6040,816
2.6060,896
2.6080,528
2.6100,960
2.6120,864
2.6140,448
2.6160,864
2.6180,736
2.6200,3088
2.6220,1248
2.6240,6193
2.6260,864
2.6280,784
2.6300,816
2.6320,1296
2.6340,976
2.6360,1360
2.6380,656
2.6400,416
2.6420,912
2.6440,848
2.6460,816
2.6480,1856
2.6500,1056
2.6520,3264
2.6540,720
2.6560,1360
2.6580,896
2.6600,1152
2.6620,848
2.6640,944
2.6660,832
2.6680,1312
2.6700,864
2.6720,704
2.6740,1296
2.6760,704
2.6780,1728
2.6800,832
2.6820,560
2.6840,1408
2.6860,512
2.6880,1296
2.6900,1024
2.6920,896
2.6940,528
2.6960,832
2.6980,992
2.7000,1104
2.7020,1152
2.7040,832
2.7060,800
2.7080,992
2.7100,640
2.7120,992
2.7140,736
2.7160,1024
2.7180,560
2.7200,528
2.7220,800
2.7240,1120
2.7260,1280
2.7280,912
2.7300,1040
2.7320,608
2.7340,1152
2.7360,816
2.7380,2848
2.7400,2080
2.7420,1120
2.7440,1328
2.7460,544
2.7480,512
2.7500,784
2.7520,704
2.7540,672
2.7560,768
2.7580,704
2.7600,1024
2.7620,912
2.7640,4945
2.7660,3232
2.7680,992
2.7700,448
2.7720,1200
2.7740,736
2.7760,736
2.7780,768
2.7800,912
2.7820,720
2.7840,560
2.7860,640
2.7880,704
2.7900,768
2.7920,672
2.7940,768
2.7960,1120
2.7980,768
2.8000,672
2.8020,832
2.8040,704
2.8060,576
2.8080,560
2.8100,1504
2.8120,1168
2.8140,640
2.8160,720
2.8180,1120
2.8200,2848
2.8220,1088
2.8240,784
2.8260,1168
2.8280,1040
2.8300,768
2.8320,912
2.8340,816
2.8360,800
2.8380,928
2.8400,688
2.8420,464
2.8440,752
2.8460,848
2.8480,1232
2.8500,1232
2.8520,1040
2.8540,576
2.8560,2096
2.8580,1600
2.8600,1568
2.8620,576
2.8640,960
2.8660,752
2.8680,800
2.8700,1504
2.8720,912
2.8740,544
2.8760,784
2.8780,832
2.8800,2320
2.8820,3008
2.8840,896
2.8860,1024
2.8880,896
2.8900,656
2.8920,944
2.8940,640
2.8960,576
2.8980,720
2.9000,720
2.9020,704
2.9040,1168
2.9060,1584
2.9080,768
2.9100,1232
2.9120,688
2.9140,816
2.9160,944
2.9180,768
2.9200,448
2.9220,832
2.9240,544
2.9260,608
2.9280,976
2.9300,448
2.9320,736
2.9340,1072
2.9360,1056
2.9380,768
2.9400,832
2.9420,528
2.9440,1040
2.9460,3808
2.9480,816
2.9500,2512
2.9520,992
2.9540,960
2.9560,432
2.9580,832
2.9600,896
2.9620,1120
2.9640,1120
2.9660,608
2.9680,1088
2.9700,768
2.9720,896
2.9740,1200
2.9760,352
2.9780,864
2.9800,928
2.9820,1184
2.9840,848
2.9860,608
2.9880,560
2.9900,688
2.9920,2832
2.9940,816
2.9960,1184
2.9980,608
3.0000,816
3.0020,336
3.0040,2224
3.0060,5585
3.0080,2048
3.0100,1312
3.0120,1280
3.0140,1216
3.0160,2368
3.0180,784
3.0200,816
3.0220,3120
3.0240,2464
3.0260,1088
3.0280,1216
3.0300,1056
3.0320,1600
3.0340,720
3.0360,784
3.0380,720
3.0400,1296
3.0420,832
3.0440,1024
3.0460,592
3.0480,2128
3.0500,560
3.0520,544
3.0540,560
3.0560,1184
3.0580,912
3.0600,1200
3.0620,512
3.0640,1264
3.0660,416
3.0680,4193
3.0700,1280
3.0720,1568
3.0740,1152
3.0760,944
3.0780,1312
3.0800,752
3.0820,1072
3.0840,3088
3.0860,1408
3.0880,1168
3.0900,864
3.0920,1152
3.0940,2608
3.0960,2384
3.0980,784
3.1000,944
3.1020,1280
3.1040,2512
3.1060,2224
3.1080,1984
3.1100,1168
3.1120,1664
3.1140,944
3.1160,2496
3.1180,640
3.1200,1040
3.1220,1600
3.1240,1408
3.1260,592
3.1280,992
3.1300,560
3.1320,896
3.1340,688
3.1360,656
3.1380,1104
3.1400,640
3.1420,832
3.1440,672
3.1460,704
3.1480,896
3.1500,1184
3.1520,944
3.1540,704
3.1560,816
3.1580,720
3.1600,1024
3.1620,992
3.1640,688
3.1660,640
3.1680,6113
3.1700,7105
3.1720,832
3.1740,1040
3.1760,848
3.1780,992
3.1800,1200
3.1820,800
3.1840,3840
3.1860,848
3.1880,1168
3.1900,1296
3.1920,720
3.1940,976
3.1960,848
3.1980,832
3.2000,736
3.2020,944
3.2040,2576
3.2060,2096
3.2080,608
3.2100,656
3.2120,1280
3.2140,1440
3.2160,944
3.2180,2608
3.2200,160
3.2220,960
3.2240,720
3.2260,768
3.2280,1472
3.2300,736
3.2320,656
3.2340,1408
3.2360,512
3.2380,672
3.2400,896
3.2420,704
3.2440,576
3.2460,736
3.2480,1312
3.2500,432
3.2520,1568
3.2540,704
3.2560,1968
3.2580,1600
3.2600,800
3.2620,528
3.2640,1632
3.2660,528
3.2680,672
3.2700,528
3.2720,2688
3.2740,5505
3.2760,912
3.2780,928
3.2800,768
3.2820,656
3.2840,752
3.2860,864
3.2880,1440
3.2900,864
3.2920,528
3.2940,592
3.2960,784
3.2980,928
3.3000,784
3.3020,1536
3.3040,1456
3.3060,2752
3.3080,560
3.3100,1648
3.3120,1456
3.3140,704
3.3160,1008
3.3180,576
3.3200,1696
3.3220,544
3.3240,864
3.3260,1616
3.3280,992
3.3300,1200
3.3320,656
3.3340,1024
3.3360,592
3.3380,608
3.3400,2560
3.3420,1040
3.3440,816
3.3460,544
3.3480,1280
3.3500,864
3.3520,1056
3.3540,1200
3.3560,560
3.3580,608
3.3600,944
3.3620,704
3.3640,1024
3.3660,704
3.3680,1200
3.3700,5969
3.3720,4225
3.3740,1072
3.3760,1200
3.3780,512
3.3800,560
3.3820,976
3.3840,448
3.3860,2304
3.3880,1216
3.3900,800
3.3920,768
3.3940,944
3.3960,1056
3.3980,640
3.4000,832
3.4020,1056
3.4040,848
3.4060,528
3.4080,1792
3.4100,640
3.4120,912
3.4140,656
3.4160,784
3.4180,720
3.4200,1584
3.4220,992
3.4240,704
3.4260,1168
3.4280,672
3.4300,608
3.4320,816
3.4340,864
3.4360,864
3.4380,832
3.4400,768
3.4420,816
3.4440,1488
3.4460,800
3.4480,1024
3.4500,816
3.4520,336
3.4540,992
3.4560,832
3.4580,656
3.4600,1280
3.4620,336
3.4640,1024
3.4660,1488
3.4680,512
3.4700,3280
3.4720,1200
3.4740,5185
3.4760,2304
3.4780,2400
3.4800,1424
3.4820,2016
3.4840,784
3.4860,1120
3.4880,1360
3.4900,992
3.4920,640
3.4940,912
3.4960,432
3.4980,928
3.5000,1008
3.5020,1184
3.5040,1840
3.5060,816
3.5080,480
3.5100,1104
3.5120,816
3.5140,1664
3.5160,2048
3.5180,432
3.5200,1696
3.5220,1040
3.5240,848
3.5260,1088
3.5280,768
3.5300,784
3.5320,544
3.5340,912
3.5360,1360
3.5380,544
3.5400,1408
3.5420,1056
3.5440,720
3.5460,528
3.5480,704
3.5500,800
3.5520,848
3.5540,592
3.5560,848
3.5580,864
3.5600,1056
3.5620,736
3.5640,1376
3.5660,928
3.5680,400
3.5700,1184
3.5720,688
3.5740,1424
3.5760,1376
3.5780,864
3.5800,752
3.5820,2816
3.5840,992
3.5860,5073
3.5880,4161
3.5900,848
3.5920,1040
3.5940,784
3.5960,384
3.5980,512
3.6000,1056
3.6020,2000
3.6040,1072
3.6060,672
3.6080,1008
3.6100,896
3.6120,576
3.6140,1184
3.6160,800
3.6180,544
3.6200,720
3.6220,1024
3.6240,960
3.6260,656
3.6280,416
3.6300,944
3.6320,2320
3.6340,1168
3.6360,1392
3.6380,2576
3.6400,864
3.6420,432
3.6440,1104
3.6460,432
3.6480,976
3.6500,1536
3.6520,640
3.6540,1296
3.6560,880
3.6580,704
3.6600,464
3.6620,688
3.6640,832
3.6660,640
3.6680,2496
3.6700,800
3.6720,1168
3.6740,944
3.6760,992
3.6780,1152
3.6800,704
3.6820,2048
3.6840,976
3.6860,1296
3.6880,1072
3.6900,1056
3.6920,656
3.6940,784
3.6960,1152
3.6980,848
3.7000,656
3.7020,928
3.7040,864
3.7060,752
3.7080,864
3.7100,1280
3.7120,448
3.7140,736
3.7160,1952
3.7180,928
3.7200,1536
3.7220,736
3.7240,480
3.7260,608
3.7280,1200
3.7300,928
3.7320,704
3.7340,784
3.7360,592
3.7380,1168
3.7400,512
3.7420,1600
3.7440,2352
3.7460,784
3.7480,512
3.7500,2048
3.7520,688
3.7540,720
3.7560,784
3.7580,816
3.7600,848
3.7620,848
3.7640,640
3.7660,848
3.7680,576
3.7700,752
3.7720,928
3.7740,672
3.7760,752
3.7780,848
3.7800,1216
3.7820,800
3.7840,1328
3.7860,912
3.7880,592
3.7900,1120
3.7920,976
3.7940,1040
3.7960,7297
3.7980,1472
3.8000,928
3.8020,1920
3.8040,512
3.8060,1632
3.8080,320
3.8100,672
3.8120,816
3.8140,1536
3.8160,480
3.8180,1104
3.8200,1488
3.8220,1360
3.8240,704
3.8260,1024
3.8280,736
3.8300,3424
3.8320,928
3.8340,560
3.8360,848
3.8380,2144
3.8400,1728
3.8420,720
3.8440,1184
3.8460,576
3.8480,480
3.8500,2416
3.8520,560
3.8540,656
3.8560,1072
3.8580,1280
3.8600,1056
3.8620,832
3.8640,1328
3.8660,1056
3.8680,560
3.8700,1088
3.8720,736
3.8740,1072
3.8760,1088
3.8780,688
3.8800,448
3.8820,1600
3.8840,1024
3.8860,496
3.8880,992
3.8900,992
3.8920,1120
3.8940,784
3.8960,1440
3.8980,1008
3.9000,688
3.9020,1184
3.9040,1056
3.9060,896
3.9080,768
3.9100,976
3.9120,864
3.9140,784
3.9160,544
3.9180,1376
3.9200,656
3.9220,848
3.9240,8402
3.9260,4817
3.9280,608
3.9300,688
3.9320,1216
3.9340,992
3.9360,848
3.9380,384
3.9400,528
3.9420,608
3.9440,944
3.9460,5281
3.9480,800
3.9500,688
3.9520,976
3.9540,1088
3.9560,1040
3.9580,304
3.9600,1040
3.9620,1056
3.9640,720
3.9660,496
3.9680,736
3.9700,1616
3.9720,560
3.9740,800
3.9760,896
3.9780,1072
3.9800,1552
3.9820,1328
3.9840,480
3.9860,1568
3.9880,624
3.9900,1072
3.9920,976
3.9940,640
3.9960,2368
3.9980,1040
4.0000,992
4.0020,1040
4.0040,880
4.0060,816
4.0080,448
4.0100,544
4.0120,1056
4.0140,528
4.0160,656
4.0180,1184
4.0200,672
4.0220,1376
4.0240,848
4.0260,560
4.0280,784
4.0300,1152
4.0320,848
4.0340,1024
4.0360,3664
4.0380,4241
4.0400,1120
4.0420,2080
4.0440,528
4.0460,832
4.0480,784
4.0500,896
4.0520,1408
4.0540,1584
4.0560,640
4.0580,848
4.0600,1296
4.0620,992
4.0640,928
4.0660,576
4.0680,1312
4.0700,1952
4.0720,480
4.0740,1328
4.0760,1232
4.0780,832
4.0800,1296
4.0820,864
4.0840,912
4.0860,832
4.0880,816
4.0900,2784
4.0920,1456
4.0940,912
4.0960,1168
4.0980,1328
4.1000,1152
4.1020,1344
4.1040,832
4.1060,928
4.1080,640
4.1100,1424
4.1120,544
4.1140,976
4.1160,624
4.1180,800
4.1200,2320
4.1220,784
4.1240,3168
4.1260,1024
4.1280,544
4.1300,992
4.1320,880
4.1340,848
4.1360,672
4.1380,992
4.1400,2848
4.1420,4705
4.1440,1280
4.1460,704
4.1480,832
4.1500,672
4.1520,1088
4.1540,1344
4.1560,608
4.1580,1216
4.1600,816
4.1620,1104
4.1640,1728
4.1660,848
4.1680,784
4.1700,1616
4.1720,560
4.1740,928
4.1760,656
4.1780,2432
4.1800,992
4.1820,560
4.1840,1344
4.1860,768
4.1880,2208
4.1900,1232
4.1920,2176
4.1940,512
4.1960,976
4.1980,800
4.2000,4064
4.2020,656
4.2040,432
4.2060,1328
4.2080,608
4.2100,896
4.2120,2240
4.2140,896
4.2160,784
4.2180,640
4.2200,1808
4.2220,480
4.2240,992
4.2260,688
4.2280,848
4.2300,400
4.2320,1024
4.2340,720
4.2360,960
4.2380,672
4.2400,1440
4.2420,800
4.2440,992
4.2460,1040
4.2480,688
4.2500,960
4.2520,1040
4.2540,832
4.2560,656
4.2580,736
4.2600,1088
4.2620,1312
4.2640,1696
4.2660,704
4.2680,1056
4.2700,736
4.2720,976
4.2740,1104
4.2760,2496
4.2780,1088
4.2800,624
4.2820,1728
4.2840,1472
4.2860,1312
4.2880,1120
4.2900,560
4.2920,496
4.2940,1536
4.2960,992
4.2980,688
4.3000,1152
4.3020,896
4.3040,720
4.3060,688
4.3080,848
4.3100,784
4.3120,400
4.3140,704
4.3160,736
4.3180,672
4.3200,656
4.3220,800
4.3240,640
4.3260,2144
4.3280,816
4.3300,832
4.3320,448
4.3340,1344
4.3360,1472
4.3380,912
4.3400,1184
4.3420,2000
4.3440,896
4.3460,1488
4.3480,1408
4.3500,896
4.3520,944
4.3540,672
4.3560,896
4.3580,1296
4.3600,304
4.3620,640
4.3640,992
4.3660,960
4.3680,560
4.3700,736
4.3720,1568
4.3740,1232
4.3760,1536
4.3780,736
4.3800,384
4.3820,752
4.3840,576
4.3860,576
4.3880,688
4.3900,1152
4.3920,864
4.3940,784
4.3960,640
4.3980,896
4.4000,672
4.4020,1056
4.4040,944
4.4060,1040
4.4080,816
4.4100,7329
4.4120,8161
4.4140,944
4.4160,672
4.4180,688
4.4200,1472
4.4220,1024
4.4240,736
4.4260,688
4.4280,944
4.4300,896
4.4320,1152
4.4340,704
4.4360,1616
4.4380,1408
4.4400,960
4.4420,1088
4.4440,960
4.4460,560
4.4480,1056
4.4500,960
4.4520,1632
4.4540,848
4.4560,1280
4.4580,1088
4.4600,688
4.4620,928
4.4640,1040
4.4660,1200
4.4680,832
4.4700,720
4.4720,1120
4.4740,848
4.4760,816
4.4780,816
4.4800,2256
4.4820,2240
4.4840,1120
4.4860,1232
4.4880,480
4.4900,704
4.4920,480
4.4940,1264
4.4960,848
4.4980,864
4.5000,5761
4.5020,1072
4.5040,2960
4.5060,720
4.5080,672
4.5100,912
4.5120,1696
4.5140,1296
4.5160,736
4.5180,944
4.5200,736
4.5220,976
4.5240,640
4.5260,768
4.5280,576
4.5300,1040
4.5320,704
4.5340,672
4.5360,336
4.5380,2912
4.5400,1216
4.5420,1104
4.5440,672
4.5460,512
4.5480,528
4.5500,784
4.5520,1200
4.5540,1936
4.5560,640
4.5580,512
4.5600,672
4.5620,1440
4.5640,960
4.5660,1120
4.5680,784
4.5700,768
4.5720,736
4.5740,768
4.5760,1200
4.5780,976
4.5800,1760
4.5820,352
4.5840,1472
4.5860,1712
4.5880,1328
4.5900,7505
4.5920,7009
4.5940,848
4.5960,1280
4.5980,1184
4.6000,528
4.6020,784
4.6040,576
4.6060,608
4.6080,864
4.6100,832
4.6120,656
4.6140,1152
4.6160,1056
4.6180,1104
4.6200,1072
4.6220,1424
4.6240,912
4.6260,928
4.6280,1696
4.6300,672
4.6320,720
4.6340,928
4.6360,800
4.6380,944
4.6400,560
4.6420,496
4.6440,464
4.6460,912
4.6480,928
4.6500,1040
4.6520,672
4.6540,720
4.6560,912
4.6580,480
4.6600,640
4.6620,1216
4.6640,1024
4.6660,1088
4.6680,800
4.6700,976
4.6720,576
4.6740,976
4.6760,544
4.6780,1024
4.6800,592
4.6820,880
4.6840,592
4.6860,912
4.6880,832
4.6900,560
4.6920,1184
4.6940,1680
4.6960,1328
4.6980,672
4.7000,864
4.7020,688
4.7040,6609
4.7060,7057
4.7080,1280
4.7100,944
4.7120,880
4.7140,2016
4.7160,1136
4.7180,752
4.7200,2832
4.7220,656
4.7240,832
4.7260,1328
4.7280,592
4.7300,1024
4.7320,976
4.7340,1072
4.7360,992
4.7380,1232
4.7400,1472
4.7420,1040
4.7440,544
4.7460,1184
4.7480,1424
4.7500,1184
4.7520,832
4.7540,1136
4.7560,912
4.7580,1104
4.7600,736
4.7620,432
4.7640,688
4.7660,976
4.7680,560
4.7700,1728
4.7720,1744
4.7740,640
4.7760,512
4.7780,992
4.7800,1712
4.7820,720
4.7840,1920
4.7860,576
4.7880,864
4.7900,592
4.7920,3344
4.7940,1488
4.7960,1424
4.7980,976
4.8000,560
4.8020,1808
4.8040,1024
4.8060,1536
4.8080,1040
4.8100,1104
4.8120,1296
4.8140,896
4.8160,912
4.8180,976
4.8200,720
4.8220,1040
4.8240,800
4.8260,1200
4.8280,976
4.8300,880
4.8320,1360
4.8340,1088
4.8360,1680
4.8380,816
4.8400,912
4.8420,512
4.8440,672
4.8460,576
4.8480,1632
4.8500,1680
4.8520,1328
4.8540,784
4.8560,720
4.8580,2096
4.8600,816
4.8620,704
4.8640,1072
4.8660,976
4.8680,768
4.8700,1808
4.8720,1568
4.8740,1040
4.8760,720
4.8780,976
4.8800,848
4.8820,1232
4.8840,512
4.8860,976
4.8880,752
4.8900,1472
4.8920,1872
4.8940,1840
4.8960,400
4.8980,1088
4.9000,528
4.9020,768
4.9040,416
4.9060,976
4.9080,1056
4.9100,1280
4.9120,896
4.9140,880
4.9160,928
4.9180,720
4.9200,736
4.9220,704
4.9240,784
4.9260,928
4.9280,608
4.9300,400
4.9320,672
4.9340,320
4.9360,3024
4.9380,784
4.9400,1824
4.9420,1040
4.9440,928
4.9460,944
4.9480,1328
4.9500,896
4.9520,352
4.9540,656
4.9560,1024
4.9580,688
4.9600,768
4.9620,1504
4.9640,864
4.9660,896
4.9680,720
4.9700,640
4.9720,624
4.9740,2880
4.9760,5873
4.9780,928
4.9800,640
4.9820,848
4.9840,1968
4.9860,864
4.9880,1920
4.9900,544
4.9920,704
4.9940,832
4.9960,896
4.9980,1184
5.0000,528
5.0020,736
5.0040,704
5.0060,480
5.0080,928
5.0100,688
5.0120,752
5.0140,1840
5.0160,480
5.0180,6145
5.0200,4913
5.0220,640
5.0240,944
5.0260,832
5.0280,1376
5.0300,3392
5.0320,3392
5.0340,1120
5.0360,768
5.0380,864
5.0400,608
5.0420,800
5.0440,576
5.0460,2368
5.0480,1600
5.0500,784
5.0520,640
5.0540,944
5.0560,1056
5.0580,976
5.0600,864
5.0620,1632
5.0640,784
5.0660,1184
5.0680,848
5.0700,1632
5.0720,1488
5.0740,1024
5.0760,928
5.0780,640
5.0800,992
5.0820,1056
5.0840,1632
5.0860,848
5.0880,784
5.0900,1216
5.0920,944
5.0940,944
5.0960,1120
5.0980,688
5.1000,1072
5.1020,1936
5.1040,4321
5.1060,1792
5.1080,736
5.1100,1200
5.1120,1008
5.1140,448
5.1160,768
5.1180,1664
5.1200,2048
5.1220,832
5.1240,1200
5.1260,416
5.1280,1616
5.1300,1664
5.1320,1024
5.1340,512
5.1360,800
5.1380,656
5.1400,3216
5.1420,4064
5.1440,1152
5.1460,1136
5.1480,896
5.1500,864
5.1520,800
5.1540,960
5.1560,1424
5.1580,1088
5.1600,784
5.1620,976
5.1640,1152
5.1660,1120
5.1680,560
5.1700,912
5.1720,656
5.1740,1040
5.1760,784
5.1780,2080
5.1800,1200
5.1820,672
5.1840,1168
5.1860,1888
5.1880,1344
5.1900,1616
5.1920,1072
5.1940,640
5.1960,992
5.1980,1200
5.2000,1328
5.2020,720
5.2040,512
5.2060,1664
5.2080,6929
5.2100,1264
5.2120,1680
5.2140,912
5.2160,3952
5.2180,528
5.2200,480
5.2220,1920
5.2240,1248
5.2260,1856
5.2280,1328
5.2300,1440
5.2320,1312
5.2340,816
5.2360,528
5.2380,720
5.2400,656
5.2420,464
5.2440,976
5.2460,688
5.2480,656
5.2500,976
5.2520,656
5.2540,848
5.2560,848
5.2580,688
5.2600,800
5.2620,560
5.2640,864
5.2660,688
5.2680,656
5.2700,800
5.2720,576
5.2740,912
5.2760,928
5.2780,1584
5.2800,1440
5.2820,576
5.2840,784
5.2860,1104
5.2880,1072
5.2900,720
5.2920,912
5.2940,784
5.2960,1632
5.2980,704
5.3000,1760
5.3020,912
5.3040,1472
5.3060,704
5.3080,1168
5.3100,1040
5.3120,720
5.3140,608
5.3160,864
5.3180,1072
5.3200,688
5.3220,1120
5.3240,2400
5.3260,2128
5.3280,800
5.3300,1152
5.3320,464
5.3340,736
5.3360,704
5.3380,928
5.3400,912
5.3420,896
5.3440,1088
5.3460,512
5.3480,976
5.3500,752
5.3520,672
5.3540,800
5.3560,704
5.3580,784
5.3600,720
5.3620,1232
5.3640,864
5.3660,656
5.3680,1152
5.3700,1248
5.3720,1200
5.3740,976
5.3760,1584
5.3780,784
5.3800,1072
5.3820,704
5.3840,928
5.3860,720
5.3880,1024
5.3900,992
5.3920,784
5.3940,912
5.3960,896
5.3980,1168
5.4000,464
5.4020,1472
5.4040,3392
5.4060,2480
5.4080,1072
5.4100,1744
5.4120,768
5.4140,928
5.4160,720
5.4180,1024
5.4200,720
5.4220,784
5.4240,640
5.4260,1456
5.4280,976
5.4300,560
5.4320,688
5.4340,1248
5.4360,960
5.4380,640
5.4400,432
5.4420,800
5.4440,992
5.4460,720
5.4480,1040
5.4500,1232
5.4520,832
5.4540,1232
5.4560,944
5.4580,1184
5.4600,1184
5.4620,1584
5.4640,6001
5.4660,1952
5.4680,512
5.4700,608
5.4720,784
5.4740,688
5.4760,1248
5.4780,1984
5.4800,1472
5.4820,1072
5.4840,944
5.4860,2400
5.4880,304
5.4900,832
5.4920,720
5.4940,1056
5.4960,1040
5.4980,896
5.5000,1248
5.5020,896
5.5040,800
5.5060,624
5.5080,864
5.5100,832
5.5120,1328
5.5140,656
5.5160,528
5.5180,560
5.5200,4945
5.5220,6657
5.5240,976
5.5260,688
5.5280,720
5.5300,1568
5.5320,752
5.5340,3392
5.5360,720
5.5380,1184
5.5400,608
5.5420,784
5.5440,976
5.5460,864
5.5480,1024
5.5500,624
5.5520,1104
5.5540,816
5.5560,1072
5.5580,896
5.5600,992
5.5620,768
5.5640,944
5.5660,848
5.5680,720
5.5700,784
5.5720,720
5.5740,960
5.5760,656
5.5780,448
5.5800,1520
5.5820,864
5.5840,544
5.5860,1232
5.5880,800
5.5900,912
5.5920,448
5.5940,704
5.5960,336
5.5980,944
5.6000,736
5.6020,752
5.6040,720
5.6060,976
5.6080,1504
5.6100,848
5.6120,1424
5.6140,1056
5.6160,656
5.6180,944
5.6200,512
5.6220,928
5.6240,768
5.6260,528
5.6280,704
5.6300,2000
5.6320,1440
5.6340,864
5.6360,2192
5.6380,1376
5.6400,1456
5.6420,368
5.6440,1488
5.6460,672
5.6480,416
5.6500,848
5.6520,672
5.6540,1248
5.6560,1088
5.6580,1536
5.6600,944
5.6620,1088
5.6640,736
5.6660,560
5.6680,1552
5.6700,1920
5.6720,512
5.6740,1184
5.6760,1056
5.6780,640
5.6800,1536
5.6820,736
5.6840,400
5.6860,1024
5.6880,2016
5.6900,1472
5.6920,592
5.6940,512
5.6960,656
5.6980,528
5.7000,544
5.7020,480
5.7040,384
5.7060,1440
5.7080,656
5.7100,1200
5.7120,960
5.7140,1184
5.7160,752
5.7180,1312
5.7200,912
5.7220,832
5.7240,448
5.7260,2896
5.7280,4449
5.7300,576
5.7320,768
5.7340,400
5.7360,512
5.7380,576
5.7400,736
5.7420,944
5.7440,688
5.7460,912
5.7480,1344
5.7500,736
5.7520,560
5.7540,928
5.7560,1088
5.7580,832
5.7600,560
5.7620,672
5.7640,912
5.7660,864
5.7680,544
5.7700,832
5.7720,896
5.7740,1344
5.7760,976
5.7780,960
5.7800,800
5.7820,1280
5.7840,1296
5.7860,2016
5.7880,1184
5.7900,800
5.7920,1088
5.7940,960
5.7960,2080
5.7980,1040
5.8000,720
5.8020,704
5.8040,576
5.8060,720
5.8080,1328
5.8100,3504
5.8120,2816
5.8140,688
5.8160,1088
5.8180,2208
5.8200,560
5.8220,672
5.8240,912
5.8260,1552
5.8280,1280
5.8300,992
5.8320,1840
5.8340,992
5.8360,656
5.8380,864
5.8400,512
5.8420,592
5.8440,768
5.8460,1200
5.8480,528
5.8500,1536
5.8520,832
5.8540,1552
5.8560,2224
5.8580,1056
5.8600,448
5.8620,768
5.8640,6737
5.8660,3792
5.8680,2832
5.8700,1056
5.8720,544
5.8740,544
5.8760,912
5.8780,1568
5.8800,608
5.8820,1184
5.8840,352
5.8860,800
5.8880,2720
5.8900,3344
5.8920,880
5.8940,608
5.8960,640
5.8980,1984
5.9000,2896
5.9020,1680
5.9040,656
5.9060,944
5.9080,768
5.9100,1152
5.9120,720
5.9140,1472
5.9160,960
5.9180,4689
5.9200,672
5.9220,512
5.9240,1120
5.9260,768
5.9280,1440
5.9300,672
5.9320,752
5.9340,960
5.9360,1424
5.9380,1168
5.9400,2736
5.9420,2384
5.9440,6065
5.9460,1200
5.9480,3904
5.9500,1056
5.9520,944
5.9540,2016
5.9560,656
5.9580,1232
5.9600,512
5.9620,736
5.9640,832
5.9660,1504
5.9680,528
5.9700,656
5.9720,512
5.9740,1072
5.9760,608
5.9780,1584
5.9800,608
5.9820,720
5.9840,1040
5.9860,1632
5.9880,800
5.9900,752
5.9920,784
5.9940,1040
5.9960,1680
5.9980,480
6.0000,3232
6.0020,688
6.0040,784
6.0060,1344
6.0080,784
6.0100,944
6.0120,544
6.0140,1248
6.0160,672
6.0180,704
6.0200,784
6.0220,944
6.0240,1360
6.0260,560
6.0280,1232
6.0300,992
6.0320,944
6.0340,1872
6.0360,800
6.0380,2256
6.0400,1040
6.0420,576
6.0440,816
6.0460,976
6.0480,848
6.0500,512
6.0520,736
6.0540,448
6.0560,576
6.0580,1040
6.0600,1248
6.0620,672
6.0640,816
6.0660,1696
6.0680,816
6.0700,640
6.0720,672
6.0740,1408
6.0760,656
6.0780,1072
6.0800,704
6.0820,960
6.0840,1168
6.0860,608
6.0880,896
6.0900,928
6.0920,1488
6.0940,1088
6.0960,816
6.0980,688
6.1000,800
6.1020,1024
6.1040,1024
6.1060,1136
6.1080,464
6.1100,1184
6.1120,832
6.1140,1520
6.1160,1072
6.1180,624
6.1200,1296
6.1220,1184
6.1240,1472
6.1260,880
6.1280,944
6.1300,736
6.1320,1296
6.1340,832
6.1360,928
6.1380,1456
6.1400,336
6.1420,448
6.1440,2960
6.1460,8145
6.1480,944
6.1500,768
6.1520,1968
6.1540,1072
6.1560,688
6.1580,784
6.1600,1200
6.1620,768
6.1640,688
6.1660,896
6.1680,480
6.1700,848
6.1720,832
6.1740,1216
6.1760,1120
6.1780,1632
6.1800,848
6.1820,944
6.1840,544
6.1860,4032
6.1880,1408
6.1900,1664
6.1920,1200
6.1940,976
6.1960,912
6.1980,1040
6.2000,992
6.2020,2128
6.2040,832
6.2060,832
6.2080,976
6.2100,864
6.2120,1152
6.2140,912
6.2160,1056
6.2180,5809
6.2200,672
6.2220,720
6.2240,832
6.2260,2192
6.2280,1040
6.2300,1632
6.2320,720
6.2340,1280
6.2360,640
6.2380,592
6.2400,1232
6.2420,1056
6.2440,1024
6.2460,976
6.2480,800
6.2500,2576
6.2520,912
6.2540,768
6.2560,1232
6.2580,592
6.2600,1120
6.2620,1552
6.2640,464
6.2660,3840
6.2680,1008
6.2700,768
6.2720,1024
6.2740,2240
6.2760,480
6.2780,3200
6.2800,2784
6.2820,864
6.2840,1328
6.2860,848
6.2880,960
6.2900,1616
6.2920,2704
6.2940,1472
6.2960,1040
6.2980,976
6.3000,1232
6.3020,800
6.3040,1120
6.3060,464
6.3080,928
6.3100,1184
6.3120,656
6.3140,736
6.3160,7377
6.3180,592
6.3200,1072
6.3220,1200
6.3240,1584
6.3260,752
6.3280,928
6.3300,944
6.3320,944
6.3340,1104
6.3360,1056
6.3380,688
6.3400,944
6.3420,1072
6.3440,528
6.3460,592
6.3480,1664
6.3500,3024
6.3520,1024
6.3540,1312
6.3560,1568
6.3580,1024
6.3600,1120
6.3620,1872
6.3640,1424
6.3660,800
6.3680,1072
6.3700,880
6.3720,400
6.3740,720
6.3760,816
6.3780,1280
6.3800,1280
6.3820,2768
6.3840,752
6.3860,688
6.3880,1024
6.3900,752
6.3920,752
6.3940,768
6.3960,2512
6.3980,1264
6.4000,3952
6.4020,688
6.4040,960
6.4060,816
6.4080,1008
6.4100,4337
6.4120,1568
6.4140,2720
6.4160,2608
6.4180,5169
6.4200,704
6.4220,1040
6.4240,1296
6.4260,512
6.4280,1104
6.4300,800
6.4320,2704
6.4340,1104
6.4360,688
6.4380,640
6.4400,3168
6.4420,1120
6.4440,1440
6.4460,800
6.4480,1680
6.4500,464
6.4520,640
6.4540,2448
6.4560,1024
6.4580,400
6.4600,4977
6.4620,3072
6.4640,3600
6.4660,3552
6.4680,2016
6.4700,1120
6.4720,912
6.4740,3280
6.4760,2960
6.4780,1168
6.4800,2096
6.4820,1952
6.4840,5041
6.4860,3088
6.4880,2352
6.4900,1504
6.4920,1200
6.4940,2688
6.4960,2128
6.4980,1504
6.5000,1472
6.5020,1888
6.5040,4225
6.5060,3856
6.5080,1504
6.5100,1936
6.5120,736
6.5140,1712
6.5160,1008
6.5180,1408
6.5200,656
6.5220,816
6.5240,1712
6.5260,768
6.5280,656
6.5300,768
6.5320,1488
6.5340,1760
6.5360,1040
6.5380,1776
6.5400,1152
6.5420,608
6.5440,2416
6.5460,4417
6.5480,816
6.5500,896
6.5520,1040
6.5540,2592
6.5560,1248
6.5580,976
6.5600,1968
6.5620,992
6.5640,3744
6.5660,832
6.5680,704
6.5700,992
6.5720,848
6.5740,1152
6.5760,1280
6.5780,1776
6.5800,1152
6.5820,1344
6.5840,1296
6.5860,608
6.5880,1088
6.5900,5009
6.5920,1968
6.5940,1280
6.5960,1216
6.5980,576
6.6000,1040
6.6020,992
6.6040,1248
6.6060,1040
6.6080,1360
6.6100,1376
6.6120,896
6.6140,1376
6.6160,816
6.6180,1088
6.6200,800
6.6220,1344
6.6240,640
6.6260,1344
6.6280,480
6.6300,4385
6.6320,1760
6.6340,1024
6.6360,1344
6.6380,1584
6.6400,1952
6.6420,1616
6.6440,1216
6.6460,1216
6.6480,640
6.6500,2944
6.6520,784
6.6540,2768
6.6560,960
6.6580,4785
6.6600,2320
6.6620,2048
6.6640,864
6.6660,1072
6.6680,720
6.6700,768
6.6720,6833
6.6740,1040
6.6760,3392
6.6780,1616
6.6800,5841
6.6820,928
6.6840,4737
6.6860,704
6.6880,704
6.6900,2336
6.6920,4048
6.6940,672
6.6960,992
6.6980,4353
6.7000,2672
6.7020,960
6.7040,1552
6.7060,1376
6.7080,3312
6.7100,944
6.7120,1984
6.7140,2576
6.7160,864
6.7180,1600
6.7200,1056
6.7220,2704
6.7240,3712
6.7260,1200
6.7280,14739
6.7300,1408
6.7320,4193
6.7340,2144
6.7360,768
6.7380,704
6.7400,1040
6.7420,1424
6.7440,1552
6.7460,1616
6.7480,1120
6.7500,1456
6.7520,8386
6.7540,1744
6.7560,1312
6.7580,944
6.7600,6801
6.7620,8113
6.7640,1040
6.7660,1664
6.7680,14595
6.7700,2784
6.7720,1296
6.7740,1872
6.7760,2192
6.7780,5585
6.7800,2064
6.7820,1344
6.7840,9266
6.7860,3472
6.7880,800
6.7900,1088
6.7920,6465
6.7940,1888
6.7960,3344
6.7980,8962
6.8000,2720
6.8020,1232
6.8040,1216
6.8060,13123
6.8080,1104
6.8100,8866
6.8120,1152
6.8140,3152
6.8160,3552
6.8180,4593
6.8200,1840
6.8220,912
6.8240,5169
6.8260,1840
6.8280,1648
6.8300,4129
6.8320,5793
6.8340,1936
6.8360,9058
6.8380,8242
6.8400,816
6.8420,1856
6.8440,8017
6.8460,1744
6.8480,1568
6.8500,896
6.8520,1664
6.8540,8242
6.8560,2976
6.8580,2400
6.8600,2368
6.8620,1536
6.8640,4257
6.8660,1824
6.8680,4737
6.8700,2000
6.8720,1744
6.8740,2560
6.8760,6721
6.8780,7105
6.8800,13859
6.8820,928
6.8840,2512
6.8860,20404
6.8880,3408
6.8900,1968
6.8920,2336
6.8940,1104
6.8960,11842
6.8980,2576
6.9000,1568
6.9020,528
6.9040,2912
6.9060,848
6.9080,2896
6.9100,1104
6.9120,1440
6.9140,4785
6.9160,3168
6.9180,7601
6.9200,3664
6.9220,8081
6.9240,1920
6.9260,5089
6.9280,816
6.9300,7713
6.9320,976
6.9340,1840
6.9360,1872
6.9380,11794
6.9400,3552
6.9420,6049
6.9440,11282
6.9460,1824
6.9480,10386
6.9500,992
6.9520,1152
6.9540,784
6.9560,1200
6.9580,4129
6.9600,8738
6.9620,10850
6.9640,1184
6.9660,5313
6.9680,3168
6.9700,10658
6.9720,22085
6.9740,9202
6.9760,2560
6.9780,5729
6.9800,3264
6.9820,864
6.9840,2352
6.9860,6433
6.9880,8386
6.9900,4449
6.9920,12002
6.9940,9154
6.9960,4305
6.9980,1120
7.0000,1664
7.0020,2336
7.0040,1856
7.0060,1728
7.0080,3776
7.0100,1696
7.0120,11330
7.0140,11282
7.0160,2160
7.0180,640
7.0200,6497
7.0220,1872
7.0240,992
7.0260,5857
7.0280,6689
7.0300,13011
7.0320,4321
7.0340,25302
7.0360,8722
7.0380,4369
7.0400,768
7.0420,15971
7.0440,5761
7.0460,1584
7.0480,2384
7.0500,3360
7.0520,8386
7.0540,3328
7.0560,1856
7.0580,4241
7.0600,1200
7.0620,8994
7.0640,17796
7.0660,11474
7.0680,672
7.0700,8017
7.0720,10418
7.0740,3296
7.0760,9634
7.0780,4625
7.0800,15187
7.0820,3024
7.0840,9746
7.0860,2144
7.0880,3824
7.0900,8802
7.0920,1168
7.0940,5409
7.0960,1344
7.0980,2832
7.1000,11250
7.1020,1792
7.1040,15059
7.1060,1824
7.1080,3328
7.1100,1424
7.1120,1072
7.1140,2048
7.1160,9218
7.1180,4561
7.1200,13459
7.1220,1216
7.1240,8802
7.1260,2800
7.1280,4705
7.1300,976
7.1320,6689
7.1340,5505
7.1360,7361
7.1380,1024
7.1400,3760
7.1420,960
7.1440,1808
7.1460,21573
7.1480,1680
7.1500,720
7.1520,544
7.1540,2096
7.1560,2512
7.1580,1840
7.1600,14483
7.1620,3152
7.1640,6977
7.1660,1696
7.1680,8258
7.1700,6689
7.1720,12755
7.1740,9938
7.1760,912
7.1780,3712
7.1800,3568
7.1820,1936
7.1840,2080
7.1860,7057
7.1880,20372
7.1900,6161
7.1920,2064
7.1940,1888
7.1960,1408
7.1980,20468
7.2000,1040
7.2020,14867
7.2040,4865
7.2060,5937
7.2080,2576
7.2100,5793
7.2120,14115
7.2140,27190
7.2160,2352
7.2180,10626
7.2200,4401
7.2220,7841
7.2240,13523
7.2260,1120
7.2280,3520
7.2300,2992
7.2320,7841
7.2340,11570
7.2360,7377
7.2380,5281
7.2400,20917
7.2420,13331
7.2440,16804
7.2460,5073
7.2480,1376
7.2500,4385
7.2520,2512
7.2540,12242
7.2560,1280
7.2580,4769
7.2600,7329
7.2620,4561
7.2640,1888
7.2660,6785
7.2680,9090
7.2700,1888
7.2720,1360
7.2740,8177
7.2760,7713
7.2780,13155
7.2800,1632
7.2820,15155
7.2840,6017
7.2860,1536
7.2880,1088
7.2900,6369
7.2920,1280
7.2940,4689
7.2960,14723
7.2980,11554
7.3000,31559
7.3020,9314
7.3040,2400
7.3060,3888
7.3080,704
7.3100,12771
7.3120,15107
7.3140,8946
7.3160,7505
7.3180,1232
7.3200,1888
7.3220,3552
7.3240,4577
7.3260,2256
7.3280,5249
7.3300,1584
7.3320,10050
7.3340,1760
7.3360,1936
7.3380,8177
7.3400,5665
7.3420,15187
7.3440,1040
7.3460,9490
7.3480,10786
7.3500,848
7.3520,2144
7.3540,1632
7.3560,1296
7.3580,2496
7.3600,1376
7.3620,2768
7.3640,14547
7.3660,10466
7.3680,5905
7.3700,1120
7.3720,10898
7.3740,1792
7.3760,1360
7.3780,1936
7.3800,9154
7.3820,11778
7.3840,2848
7.3860,11186
7.3880,4529
7.3900,22741
7.3920,8177
7.3940,2656
7.3960,12483
7.3980,2736
7.4000,5377
7.4020,1552
7.4040,5985
7.4060,14787
7.4080,9858
7.4100,2224
7.4120,1328
7.4140,21029
7.4160,1920
7.4180,1248
7.4200,11746
7.4220,8466
7.4240,3216
7.4260,12002
7.4280,22197
7.4300,5185
7.4320,1200
7.4340,1152
7.4360,8258
7.4380,10242
7.4400,3248
7.4420,1632
7.4440,10658
7.4460,2656
7.4480,1616
7.4500,2768
7.4520,2672
7.4540,13795
7.4560,720
7.4580,3280
7.4600,3712
7.4620,7633
7.4640,2704
7.4660,7921
7.4680,3072
7.4700,3888
7.4720,2608
7.4740,1120
7.4760,1248
7.4780,1056
7.4800,8386
7.4820,2352
7.4840,6545
7.4860,5713
7.4880,7361
7.4900,4481
7.4920,9266
7.4940,928
7.4960,10082
7.4980,2512
7.5000,896
7.5020,1600
7.5040,3216
7.5060,11394
7.5080,3536
7.5100,13475
7.5120,4016
7.5140,4337
7.5160,21221
7.5180,12531
7.5200,4657
7.5220,4481
7.5240,2832
7.5260,1488
7.5280,976
7.5300,2208
7.5320,6625
7.5340,10162
7.5360,20260
7.5380,912
7.5400,11218
7.5420,1200
7.5440,5329
7.5460,9154
7.5480,2320
7.5500,14819
7.5520,1552
7.5540,16612
7.5560,29335
7.5580,8113
7.5600,1184
7.5620,6145
7.5640,12291
7.5660,16516
7.5680,1040
7.5700,3008
7.5720,3024
7.5740,1232
7.5760,1408
7.5780,11410
7.5800,2880
7.5820,1232
7.5840,2352
7.5860,6705
7.5880,8578
7.5900,3152
7.5920,3936
7.5940,1152
7.5960,14867
7.5980,16932
7.6000,13395
7.6020,6289
7.6040,3872
7.6060,1856
7.6080,11602
7.6100,1616
7.6120,9794
7.6140,2880
7.6160,4785
7.6180,1440
7.6200,18116
7.6220,5681
7.6240,1888
7.6260,13827
7.6280,11842
7.6300,6529
7.6320,25558
7.6340,8145
7.6360,1024
7.6380,2048
7.6400,1120
7.6420,2256
7.6440,19748
7.6460,12435
7.6480,7665
7.6500,3328
7.6520,11330
7.6540,12210
7.6560,2560
7.6580,12499
7.6600,4561
7.6620,5185
7.6640,1744
7.6660,8097
7.6680,2896
7.6700,7905
7.6720,14035
7.6740,7265
7.6760,9538
7.6780,3680
7.6800,832
7.6820,1264
7.6840,5665
7.6860,1344
7.6880,12883
7.6900,976
7.6920,3072
7.6940,2688
7.6960,6593
7.6980,9298
7.7000,14291
7.7020,20052
7.7040,736
7.7060,8226
7.7080,14611
7.7100,20404
7.7120,3920
7.7140,896
7.7160,1328
7.7180,7761
7.7200,6625
7.7220,8258
7.7240,11474
7.7260,1072
7.7280,10258
7.7300,6321
7.7320,1536
7.7340,14211
7.7360,3280
7.7380,4305
7.7400,8642
7.7420,3360
7.7440,1536
7.7460,10386
7.7480,1040
7.7500,2176
7.7520,3088
7.7540,1824
7.7560,3504
7.7580,3984
7.7600,13955
7.7620,4113
7.7640,23573
7.7660,3328
7.7680,8113
7.7700,6849
7.7720,4513
7.7740,1136
7.7760,8722
7.7780,4513
7.7800,3328
7.7820,5617
7.7840,7009
7.7860,6561
7.7880,16644
7.7900,19940
7.7920,2240
7.7940,5985
7.7960,4209
7.7980,2272
7.8000,7233
7.8020,12226
7.8040,1936
7.8060,1120
7.8080,2208
7.8100,17956
7.8120,13539
7.8140,7009
7.8160,5713
7.8180,10338
7.8200,1600
7.8220,1504
7.8240,1760
7.8260,14995
7.8280,3136
7.8300,15539
7.8320,13507
7.8340,784
7.8360,1968
7.8380,3920
7.8400,13091
7.8420,6193
7.8440,2176
7.8460,1168
7.8480,1616
7.8500,4193
7.8520,4032
7.8540,3664
7.8560,6625
7.8580,2496
7.8600,864
7.8620,1296
7.8640,13571
7.8660,4032
7.8680,1408
7.8700,6673
7.8720,4129
7.8740,1920
7.8760,1056
7.8780,9186
7.8800,688
7.8820,14691
7.8840,41450
7.8860,15299
7.8880,11570
7.8900,1424
7.8920,13603
7.8940,12675
7.8960,2480
7.8980,2560
7.9000,2512
7.9020,896
7.9040,1040
7.9060,1040
7.9080,9138
7.9100,1440
7.9120,928
7.9140,688
7.9160,2736
7.9180,9314
7.9200,4305
7.9220,864
7.9240,4225
7.9260,1344
7.9280,896
7.9300,11522
7.9320,3888
7.9340,1760
7.9360,1584
7.9380,4097
7.9400,2144
7.9420,2128
7.9440,9362
7.9460,3456
7.9480,4032
7.9500,2128
7.9520,2752
7.9540,12355
7.9560,2720
7.9580,1152
7.9600,7089
7.9620,8017
7.9640,2656
7.9660,3904
7.9680,14467
7.9700,1488
7.9720,18948
7.9740,8177
7.9760,1232
7.9780,8258
7.9800,880
7.9820,4737
7.9840,5569
7.9860,944
7.9880,3856
7.9900,3744
7.9920,5921
7.9940,4849
7.9960,7345
7.9980,1312
8.0000,2128
8.0020,12531
8.0040,13251
8.0060,32808
8.0080,3984
8.0100,4032
8.0120,1216
8.0140,1136
8.0160,5201
8.0180,6561
8.0200,17332
8.0220,13971
8.0240,10194
8.0260,1104
8.0280,14099
8.0300,2752
8.0320,1792
8.0340,4048
8.0360,8177
8.0380,4048
8.0400,8113
8.0420,1280
8.0440,6897
8.0460,6721
8.0480,1552
8.0500,2864
8.0520,816
8.0540,22965
8.0560,3408
8.0580,10786
8.0600,6849
8.0620,1888
8.0640,8322
8.0660,6849
8.0680,10050
8.0700,1216
8.0720,1104
8.0740,1120
8.0760,1984
8.0780,3744
8.0800,3248
8.0820,20068
8.0840,2752
8.0860,4769
8.0880,2272
8.0900,15827
8.0920,4625
8.0940,10674
8.0960,1616
8.0980,27654
8.1000,1056
8.1020,784
8.1040,7633
8.1060,13459
8.1080,2192
8.1100,22677
8.1120,2448
8.1140,8338
8.1160,10690
8.1180,10738
8.1200,2128
8.1220,1408
8.1240,9442
8.1260,9858
8.1280,1760
8.1300,1120
8.1320,4593
8.1340,3456
8.1360,4513
8.1380,2400
8.1400,3328
8.1420,1328
8.1440,4417
8.1460,1328
8.1480,4529
8.1500,1712
8.1520,1264
8.1540,16323
8.1560,4032
8.1580,6529
8.1600,3904
8.1620,7633
8.1640,1456
8.1660,7313
8.1680,4177
8.1700,2384
8.1720,1456
8.1740,11922
8.1760,4465
8.1780,4353
8.1800,4016
8.1820,15011
8.1840,6337
8.1860,5585
8.1880,2336
8.1900,5057
8.1920,3136
8.1940,2176
8.1960,3376
8.1980,1856
8.2000,608
8.2020,3008
8.2040,1760
8.2060,1680
8.2080,10050
8.2100,6209
8.2120,7857
8.2140,12771
8.2160,1696
8.2180,8097
8.2200,4097
8.2220,2384
8.2240,5633
8.2260,3744
8.2280,9810
8.2300,1056
8.2320,15091
8.2340,8001
8.2360,8450
8.2380,11378
8.2400,4913
8.2420,1360
8.2440,5377
8.2460,2064
8.2480,4401
8.2500,12963
8.2520,1328
8.2540,12066
8.2560,1600
8.2580,4897
8.2600,1840
8.2620,1296
8.2640,3136
8.2660,9874
8.2680,3088
8.2700,1312
8.2720,2896
8.2740,12483
8.2760,10498
8.2780,2912
8.2800,3152
8.2820,1536
8.2840,4481
8.2860,1248
8.2880,14483
8.2900,7457
8.2920,1536
8.2940,21269
8.2960,15123
8.2980,5009
8.3000,992
8.3020,7041
8.3040,4817
8.3060,10482
8.3080,2352
8.3100,4625
8.3120,7553
8.3140,1872
8.3160,1376
8.3180,3504
8.3200,3408
8.3220,2208
8.3240,960
8.3260,960
8.3280,2352
8.3300,976
8.3320,1488
8.3340,576
8.3360,16900
8.3380,4529
8.3400,8818
8.3420,1488
8.3440,12499
8.3460,2208
8.3480,4433
8.3500,4753
8.3520,1664
8.3540,1168
8.3560,1824
8.3580,1776
8.3600,12739
8.3620,6481
8.3640,11362
8.3660,8145
8.3680,3024
8.3700,1344
8.3720,3872
8.3740,8466
8.3760,13603
8.3780,5313
8.3800,2480
8.3820,832
8.3840,7121
8.3860,1808
8.3880,1040
8.3900,1408
8.3920,6353
8.3940,2416
8.3960,5873
8.3980,3552
8.4000,1952
8.4020,2208
8.4040,9618
8.4060,12739
8.4080,9234
8.4100,2432
8.4120,7233
8.4140,6801
8.4160,576
8.4180,6097
8.4200,1440
8.4220,3360
8.4240,3568
8.4260,8594
8.4280,26070
8.4300,12915
8.4320,3808
8.4340,1536
8.4360,2128
8.4380,1664
8.4400,3776
8.4420,10290
8.4440,3760
8.4460,2528
8.4480,3776
8.4500,5505
8.4520,9154
8.4540,1184
8.4560,2048
8.4580,2480
8.4600,2464
8.4620,6193
8.4640,5345
8.4660,7201
8.4680,13555
8.4700,7329
8.4720,5857
8.4740,13363
8.4760,7313
8.4780,2992
8.4800,11298
8.4820,7713
8.4840,1584
8.4860,4305
8.4880,2640
8.4900,4305
8.4920,13107
8.4940,3744
8.4960,2192
8.4980,3200
8.5000,5857
8.5020,1680
8.5040,4097
8.5060,6081
8.5080,15715
8.5100,18724
8.5120,6385
8.5140,17316
8.5160,22549
8.5180,16740
8.5200,14547
8.5220,4145
8.5240,1712
8.5260,928
8.5280,6257
8.5300,19172
8.5320,14035
8.5340,1472
8.5360,2560
8.5380,2896
8.5400,2256
8.5420,4529
8.5440,13219
8.5460,8466
8.5480,2864
8.5500,1056
8.5520,1568
8.5540,8290
8.5560,9506
8.5580,6529
8.5600,2336
8.5620,5425
8.5640,4097
8.5660,10978
8.5680,7905
8.5700,5697
8.5720,11154
8.5740,3264
8.5760,2224
8.5780,6353
8.5800,19012
8.5820,24517
8.5840,2880
8.5860,2048
8.5880,11794
8.5900,3584
8.5920,3648
8.5940,3712
8.5960,2320
8.5980,3504
8.6000,1376
8.6020,1376
8.6040,11234
8.6060,1328
8.6080,2000
8.6100,7473
8.6120,2448
8.6140,2192
8.6160,4881
8.6180,3392
8.6200,5297
8.6220,9810
8.6240,1824
8.6260,5985
8.6280,3856
8.6300,9250
8.6320,5201
8.6340,2080
8.6360,12162
8.6380,1152
8.6400,6721
8.6420,4353
8.6440,3968
8.6460,912
8.6480,4000
8.6500,1040
8.6520,11970
8.6540,1184
8.6560,1408
8.6580,17252
8.6600,6913
8.6620,11682
8.6640,864
8.6660,560
8.6680,2448
8.6700,1872
8.6720,6929
8.6740,9170
8.6760,6273
8.6780,5569
8.6800,9186
8.6820,14003
8.6840,1728
8.6860,14787
8.6880,1536
8.6900,1088
8.6920,2960
8.6940,7681
8.6960,3968
8.6980,12258
8.7000,3296
8.7020,3024
8.7040,1792
8.7060,1152
8.7080,11170
8.7100,1808
8.7120,1376
8.7140,1472
8.7160,6353
8.7180,8354
8.7200,2848
8.7220,5649
8.7240,2256
8.7260,6081
8.7280,10098
8.7300,10978
8.7320,4417
8.7340,1552
8.7360,9394
8.7380,8786
8.7400,1152
8.7420,2736
8.7440,4833
8.7460,8994
8.7480,4641
8.7500,7137
8.7520,14467
8.7540,1056
8.7560,8177
8.7580,1344
8.7600,2432
8.7620,7121
8.7640,4305
8.7660,18612
8.7680,1344
8.7700,18948
8.7720,2816
8.7740,7201
8.7760,17700
8.7780,25622
8.7800,4401
8.7820,1088
8.7840,3536
8.7860,2528
8.7880,2336
8.7900,18852
8.7920,1088
8.7940,3152
8.7960,6145
8.7980,4145
8.8000,1184
8.8020,2368
8.8040,18388
8.8060,2272
8.8080,12451
8.8100,23429
8.8120,1680
8.8140,1984
8.8160,5969
8.8180,1152
8.8200,10850
8.8220,8210
8.8240,3216
8.8260,8129
8.8280,4225
8.8300,6465
8.8320,2128
8.8340,12787
8.8360,1168
8.8380,10322
8.8400,928
8.8420,4993
8.8440,5681
8.8460,976
8.8480,13763
8.8500,6625
8.8520,3328
8.8540,1216
8.8560,12130
8.8580,21141
8.8600,23461
8.8620,17892
8.8640,6801
8.8660,2656
8.8680,10338
8.8700,15779
8.8720,1568
8.8740,5793
8.8760,11474
8.8780,2720
8.8800,12835
8.8820,4305
8.8840,2560
8.8860,3504
8.8880,7041
8.8900,944
8.8920,3616
8.8940,10786
8.8960,2880
8.8980,1536
8.9000,11698
8.9020,736
8.9040,6785
8.9060,816
8.9080,11826
8.9100,10114
8.9120,1392
8.9140,4305
8.9160,10290
8.9180,14291
8.9200,5121
8.9220,5521
8.9240,12371
8.9260,1024
8.9280,6177
8.9300,1792
8.9320,5969
8.9340,2080
8.9360,10626
8.9380,2048
8.9400,1248
8.9420,5265
8.9440,1232
8.9460,944
8.9480,1728
8.9500,2800
8.9520,4129
8.9540,7745
8.9560,6209
8.9580,720
8.9600,3008
8.9620,960
8.9640,3872
8.9660,928
8.9680,1808
8.9700,1632
8.9720,2464
8.9740,3568
8.9760,7777
8.9780,1872
8.9800,2624
8.9820,4273
8.9840,6289
8.9860,15011
8.9880,4048
8.9900,1520
8.9920,7889
8.9940,1040
8.9960,992
8.9980,3808
9.0000,1072
9.0020,4833
9.0040,656
9.0060,2112
9.0080,816
9.0100,6657
9.0120,1344
9.0140,13315
9.0160,1360
9.0180,10466
9.0200,4032
9.0220,5185
9.0240,1248
9.0260,1456
9.0280,2208
9.0300,4897
9.0320,10130
9.0340,3984
9.0360,5697
9.0380,7089
9.0400,2208
9.0420,8001
9.0440,8610
9.0460,2560
9.0480,10514
9.0500,2272
9.0520,14995
9.0540,6577
9.0560,18100
9.0580,2272
9.0600,4080
9.0620,10626
9.0640,2176
9.0660,10466
9.0680,7441
9.0700,6545
9.0720,1552
9.0740,10018
9.0760,17508
9.0780,2496
9.0800,1792
9.0820,1200
9.0840,976
9.0860,7473
9.0880,5585
9.0900,8978
9.0920,1344
9.0940,1360
9.0960,1504
9.0980,768
9.1000,7809
9.1020,1584
9.1040,912
9.1060,1344
9.1080,15187
9.1100,7505
9.1120,2480
9.1140,13491
9.1160,3088
9.1180,17060
9.1200,3168
9.1220,3344
9.1240,15187
9.1260,9634
9.1280,17028
9.1300,1472
9.1320,2208
9.1340,9682
9.1360,5713
9.1380,1664
9.1400,576
9.1420,5041
9.1440,768
9.1460,1056
9.1480,10818
9.1500,1440
9.1520,2192
9.1540,800
9.1560,2880
9.1580,10722
9.1600,1520
9.1620,9138
9.1640,3776
9.1660,2064
9.1680,2864
9.1700,8498
9.1720,4129
9.1740,8177
9.1760,9602
9.1780,1360
9.1800,15027
9.1820,11746
9.1840,1792
9.1860,2320
9.1880,1264
9.1900,12242
9.1920,13619
9.1940,17924
9.1960,11666
9.1980,15011
9.2000,7745
9.2020,5777
9.2040,2784
9.2060,9186
9.2080,4161
9.2100,1760
9.2120,1296
9.2140,1712
9.2160,4529
9.2180,2496
9.2200,1616
9.2220,2944
9.2240,6545
9.2260,22789
9.2280,3152
9.2300,1472
9.2320,1200
9.2340,7201
9.2360,4737
9.2380,2000
9.2400,1536
9.2420,5441
9.2440,6017
9.2460,6289
9.2480,8834
9.2500,5537
9.2520,7377
9.2540,2400
9.2560,4785
9.2580,15795
9.2600,5425
9.2620,560
9.2640,848
9.2660,2048
9.2680,2576
9.2700,1424
9.2720,688
9.2740,15251
9.2760,1504
9.2780,1520
9.2800,832
9.2820,5137
9.2840,11426
9.2860,23269
9.2880,9842
9.2900,13667
9.2920,1248
9.2940,3216
9.2960,5121
9.2980,2640
9.3000,3632
9.3020,3872
9.3040,8402
9.3060,6161
9.3080,11506
9.3100,14915
9.3120,5809
9.3140,5473
9.3160,3136
9.3180,17700
9.3200,2208
9.3220,4113
9.3240,8690
9.3260,10658
9.3280,1024
9.3300,11058
9.3320,1088
9.3340,1952
9.3360,8930
9.3380,1168
9.3400,3632
9.3420,1200
9.3440,3088
9.3460,6545
9.3480,928
9.3500,16163
9.3520,8706
9.3540,1344
9.3560,1776
9.3580,960
9.3600,7377
9.3620,1920
9.3640,4177
9.3660,2208
9.3680,944
9.3700,3072
9.3720,8930
9.3740,7873
9.3760,2064
9.3780,3456
9.3800,2816
9.3820,19492
9.3840,12675
9.3860,9634
9.3880,3808
9.3900,13475
9.3920,976
9.3940,1040
9.3960,3328
9.3980,8177
9.4000,9042
9.4020,19636
9.4040,20613
9.4060,4337
9.4080,17732
9.4100,2848
9.4120,2592
9.4140,2736
9.4160,1440
9.4180,3040
9.4200,1552
9.4220,816
9.4240,11538
9.4260,11938
9.4280,5169
9.4300,3920
9.4320,2832
9.4340,2096
9.4360,5713
9.4380,13715
9.4400,1056
9.4420,25798
9.4440,24389
9.4460,13443
9.4480,8626
9.4500,2112
9.4520,5825
9.4540,3968
9.4560,1152
9.4580,7425
9.4600,1424
9.4620,2128
9.4640,2640
9.4660,4753
9.4680,1792
9.4700,31767
9.4720,17540
9.4740,1536
9.4760,656
9.4780,1072
9.4800,12307
9.4820,3664
9.4840,6257
9.4860,15123
9.4880,4241
9.4900,2240
9.4920,2912
9.4940,3216
9.4960,6145
9.4980,1744
9.5000,24998
9.5020,1712
9.5040,10514
9.5060,5473
9.5080,5409
9.5100,3248
9.5120,7073
9.5140,7441
9.5160,2144
9.5180,5841
9.5200,10066
9.5220,21093
9.5240,6849
9.5260,1552
9.5280,11186
9.5300,11650
9.5320,4080
9.5340,672
9.5360,1632
9.5380,768
9.5400,912
9.5420,4529
9.5440,2528
9.5460,960
9.5480,20485
9.5500,8386
9.5520,1216
9.5540,8113
9.5560,11826
9.5580,1200
9.5600,992
9.5620,4273
9.5640,592
9.5660,1200
9.5680,33576
9.5700,6929
9.5720,1024
9.5740,20212
9.5760,15539
9.5780,1376
9.5800,2096
9.5820,9506
9.5840,2128
9.5860,9362
9.5880,864
9.5900,912
9.5920,10642
9.5940,1008
9.5960,1296
9.5980,1600
9.6000,5505
9.6020,1984
9.6040,7713
9.6060,2432
9.6080,2192
9.6100,816
9.6120,1472
9.6140,8610
9.6160,7009
9.6180,2560
9.6200,1264
9.6220,5713
9.6240,1616
9.6260,1088
9.6280,1344
9.6300,4273
9.6320,7425
9.6340,14003
9.6360,9602
9.6380,1344
9.6400,14115
9.6420,6817
9.6440,944
9.6460,8418
9.6480,1168
9.6500,11394
9.6520,1312
9.6540,2848
9.6560,11186
9.6580,12515
9.6600,1280
9.6620,13363
9.6640,960
9.6660,1360
9.6680,3408
9.6700,1424
9.6720,9698
9.6740,10002
9.6760,4897
9.6780,1408
9.6800,2304
9.6820,8786
9.6840,3504
9.6860,8177
9.6880,13843
9.6900,1216
9.6920,10370
9.6940,8177
9.6960,1776
9.6980,5777
9.7000,11362
9.7020,3296
9.7040,8194
9.7060,1280
9.7080,8674
9.7100,4305
9.7120,736
9.7140,7585
9.7160,6865
9.7180,1200
9.7200,18404
9.7220,912
9.7240,656
9.7260,11362
9.7280,3248
9.7300,3504
9.7320,1312
9.7340,4609
9.7360,2704
9.7380,1408
9.7400,1488
9.7420,2464
9.7440,3664
9.7460,5409
9.7480,6161
9.7500,14611
9.7520,928
9.7540,16932
9.7560,11042
9.7580,2912
9.7600,3568
9.7620,2016
9.7640,9090
9.7660,7409
9.7680,992
9.7700,3008
9.7720,1424
9.7740,13235
9.7760,4513
9.7780,9522
9.7800,1856
9.7820,9058
9.7840,10578
9.7860,3584
9.7880,5713
9.7900,4689
9.7920,11730
9.7940,7073
9.7960,13107
9.7980,6097
9.8000,18660
9.8020,6977
9.8040,1440
9.8060,8562
9.8080,3536
9.8100,4705
9.8120,3600
9.8140,6449
9.8160,15587
9.8180,20356
9.8200,2208
9.8220,9234
9.8240,3136
9.8260,3888
9.8280,2048
9.8300,5857
9.8320,1984
9.8340,2576
9.8360,7825
9.8380,4785
9.8400,22613
9.8420,3520
9.8440,9714
9.8460,5793
9.8480,1440
9.8500,9810
9.8520,8177
9.8540,6257
9.8560,1584
9.8580,5601
9.8600,1376
9.8620,784
9.8640,7377
9.8660,11714
9.8680,5153
9.8700,15907
9.8720,10050
9.8740,3088
9.8760,1584
9.8780,4801
9.8800,14035
9.8820,12899
9.8840,1760
9.8860,2304
9.8880,1664
9.8900,2448
9.8920,2368
9.8940,3456
9.8960,1792
9.8980,9218
9.9000,10434
9.9020,9506
9.9040,10082
9.9060,17444
9.9080,2816
9.9100,17252
9.9120,2704
9.9140,3776
9.9160,1536
9.9180,944
9.9200,4785
9.9220,672
9.9240,12451
9.9260,8642
9.9280,1856
9.9300,3680
9.9320,6481
9.9340,1584
9.9360,7185
9.9380,4513
9.9400,5841
9.9420,5265
9.9440,1248
9.9460,4353
9.9480,1232
9.9500,1296
9.9520,5905
9.9540,11026
9.9560,1776
9.9580,1504
9.9600,2672
9.9620,1200
9.9640,1024
9.9660,3776
9.9680,3792
9.9700,4577
9.9720,1856
9.9740,2704
9.9760,1696
9.9780,1392
9.9800,1232
9.9820,3936
9.9840,4561
9.9860,14243
9.9880,9298
9.9900,3600
9.9920,8017
9.9940,1280
9.9960,17204
9.9980,2256
10.0000,9490
10.0020,7473
10.0040,6049
10.0060,5073
10.0080,1472
10.0100,5025
10.0120,1248
10.0140,576
10.0160,13827
10.0180,1056
10.0200,5761
10.0220,2496
10.0240,3024
10.0260,9666
10.0280,5249
10.0300,5729
10.0320,1072
10.0340,2352
10.0360,1312
10.0380,1056
10.0400,7921
10.0420,1616
10.0440,1248
10.0460,1488
10.0480,5777
10.0500,8049
10.0520,10882
10.0540,7361
10.0560,1264
10.0580,2944
10.0600,2096
10.0620,4321
10.0640,5249
10.0660,1024
10.0680,13987
10.0700,3360
10.0720,4577
10.0740,9426
10.0760,2288
10.0780,1536
10.0800,9410
10.0820,11474
10.0840,1120
10.0860,9650
10.0880,1936
10.0900,4449
10.0920,13747
10.0940,3776
10.0960,4016
10.0980,1808
10.1000,4401
10.1020,3936
10.1040,1184
10.1060,1216
10.1080,16388
10.1100,2176
10.1120,4561
10.1140,2800
10.1160,2240
10.1180,1616
10.1200,2064
10.1220,10498
10.1240,5457
10.1260,6833
10.1280,8129
10.1300,7249
10.1320,2368
10.1340,608
10.1360,1520
10.1380,11298
10.1400,832
10.1420,4353
10.1440,6945
10.1460,1360
10.1480,928
10.1500,1568
10.1520,7889
10.1540,1104
10.1560,3392
10.1580,5553
10.1600,1440
10.1620,8882
10.1640,6369
10.1660,4865
10.1680,2144
10.1700,11906
10.1720,1664
10.1740,7729
10.1760,1984
10.1780,2480
10.1800,1232
10.1820,10978
10.1840,2128
10.1860,3984
10.1880,1824
10.1900,8690
10.1920,960
10.1940,2576
10.1960,6945
10.1980,13267
10.2000,6321
10.2020,11458
10.2040,3728
10.2060,2880
10.2080,1168
10.2100,5489
10.2120,1040
10.2140,960
10.2160,1440
10.2180,14691
10.2200,1936
10.2220,8642
10.2240,2272
10.2260,6913
10.2280,11938
10.2300,1920
10.2320,13235
10.2340,592
10.2360,1200
10.2380,1584
10.2400,1136
10.2420,816
10.2440,4145
10.2460,1920
10.2480,2224
10.2500,1152
10.2520,768
10.2540,784
10.2560,5217
10.2580,3792
10.2600,1520
10.2620,3808
10.2640,3744
10.2660,784
10.2680,11954
10.2700,960
10.2720,1296
10.2740,8994
10.2760,8946
10.2780,624
10.2800,12210
10.2820,2912
10.2840,10274
10.2860,13667
10.2880,15187
10.2900,9090
10.2920,5553
10.2940,18484
10.2960,5825
10.2980,944
10.3000,2608
10.3020,720
10.3040,2640
10.3060,8177
10.3080,15283
10.3100,7825
10.3120,7185
10.3140,1824
10.3160,4561
10.3180,1376
10.3200,1552
10.3220,1152
10.3240,6897
10.3260,13827
10.3280,2064
10.3300,3712
10.3320,2448
10.3340,9362
10.3360,768
10.3380,1072
10.3400,5713
10.3420,1536
10.3440,1664
10.3460,1984
10.3480,2768
10.3500,1856
10.3520,3824
10.3540,1248
10.3560,4561
10.3580,2912
10.3600,1616
10.3620,10018
10.3640,12771
10.3660,10962
10.3680,8402
10.3700,1664
10.3720,18612
10.3740,11042
10.3760,992
10.3780,9090
10.3800,1312
10.3820,896
10.3840,1232
10.3860,3744
10.3880,1248
10.3900,640
10.3920,1792
10.3940,7441
10.3960,1056
10.3980,9346
10.4000,5441
10.4020,4961
10.4040,2512
10.4060,1792
10.4080,1328
10.4100,6337
10.4120,1680
10.4140,816
10.4160,3104
10.4180,1952
10.4200,1376
10.4220,1072
10.4240,1216
10.4260,832
10.4280,8177
10.4300,5681
10.4320,3712
10.4340,9650
10.4360,864
10.4380,12739
10.4400,768
10.4420,3072
10.4440,1168
10.4460,784
10.4480,1472
10.4500,5169
10.4520,2432
10.4540,3472
10.4560,1152
10.4580,3408
10.4600,3200
10.4620,3328
10.4640,2272
10.4660,1664
10.4680,21173
10.4700,2816
10.4720,3888
10.4740,2208
10.4760,1248
10.4780,848
10.4800,848
10.4820,1360
10.4840,848
10.4860,928
10.4880,1792
10.4900,2112
10.4920,1888
10.4940,336
10.4960,1600
10.4980,3392
10.5000,3776
10.5020,8177
10.5040,2080
10.5060,5409
10.5080,3616
10.5100,1104
10.5120,1344
10.5140,1616
10.5160,1568
10.5180,896
10.5200,3456
10.5220,5377
10.5240,2640
10.5260,1584
10.5280,1552
10.5300,1632
10.5320,3344
10.5340,1200
10.5360,1712
10.5380,1328
10.5400,3520
10.5420,1328
10.5440,3616
10.5460,1696
10.5480,4305
10.5500,4769
10.5520,3760
10.5540,5825
10.5560,3712
10.5580,944
10.5600,1040
10.5620,1408
10.5640,2208
10.5660,2432
10.5680,7313
10.5700,1952
10.5720,704
10.5740,5937
10.5760,1856
10.5780,1552
10.5800,1344
10.5820,592
10.5840,1248
10.5860,1152
10.5880,1312
10.5900,4529
10.5920,1280
10.5940,1040
10.5960,1232
10.5980,6865
10.6000,3856
10.6020,1712
10.6040,1168
10.6060,1472
10.6080,800
10.6100,1808
10.6120,2208
10.6140,1600
10.6160,1168
10.6180,1120
10.6200,1040
10.6220,1824
10.6240,1680
10.6260,912
10.6280,2832
10.6300,2000
10.6320,1952
10.6340,1248
10.6360,704
10.6380,848
10.6400,6673
10.6420,864
10.6440,4513
10.6460,1104
10.6480,1360
10.6500,2560
10.6520,1248
10.6540,1248
10.6560,5985
10.6580,1360
10.6600,2688
10.6620,688
10.6640,832
10.6660,1040
10.6680,3344
10.6700,80
10.6720,3728
10.6740,784
10.6760,5729
10.6780,3152
10.6800,1440
10.6820,736
10.6840,1472
10.6860,416
10.6880,1648
10.6900,960
10.6920,1968
10.6940,2656
10.6960,5617
10.6980,896
10.7000,1664
10.7020,1456
10.7040,1056
10.7060,1312
10.7080,1056
10.7100,1632
10.7120,1600
10.7140,1600
10.7160,1424
10.7180,1216
10.7200,1568
10.7220,832
10.7240,1200
10.7260,832
10.7280,1040
10.7300,4353
10.7320,6993
10.7340,2192
10.7360,5809
10.7380,1056
10.7400,720
10.7420,1168
10.7440,1056
10.7460,2112
10.7480,3888
10.7500,3168
10.7520,672
10.7540,608
10.7560,2384
10.7580,912
10.7600,672
10.7620,2240
10.7640,4209
10.7660,2912
10.7680,1456
10.7700,704
10.7720,2592
10.7740,784
10.7760,704
10.7780,672
10.7800,928
10.7820,800
10.7840,1184
10.7860,784
10.7880,2176
10.7900,912
10.7920,6385
10.7940,11106
10.7960,1184
10.7980,736
10.8000,1440
10.8020,1312
10.8040,1632
10.8060,1296
10.8080,1088
10.8100,960
10.8120,1072
10.8140,800
10.8160,1024
10.8180,2992
10.8200,1072
10.8220,704
10.8240,1136
10.8260,3456
10.8280,1984
10.8300,832
10.8320,576
10.8340,768
10.8360,816
10.8380,1120
10.8400,896
10.8420,6609
10.8440,608
10.8460,656
10.8480,1088
10.8500,976
10.8520,2400
10.8540,3504
10.8560,1456
10.8580,592
10.8600,960
10.8620,3808
10.8640,2608
10.8660,1568
10.8680,992
10.8700,704
10.8720,2656
10.8740,1408
10.8760,832
10.8780,12050
10.8800,1344
10.8820,1792
10.8840,3712
10.8860,2912
10.8880,2560
10.8900,3232
10.8920,2144
10.8940,608
10.8960,1248
10.8980,624
10.9000,1808
10.9020,992
10.9040,720
10.9060,2336
10.9080,720
10.9100,992
10.9120,960
10.9140,1184
10.9160,1776
10.9180,784
10.9200,1888
10.9220,2576
10.9240,704
10.9260,1472
10.9280,1088
10.9300,1312
10.9320,848
10.9340,1152
10.9360,2224
10.9380,688
10.9400,4193
10.9420,432
10.9440,832
10.9460,864
10.9480,1312
10.9500,896
10.9520,2352
10.9540,1024
10.9560,5137
10.9580,2288
10.9600,704
10.9620,1088
10.9640,1120
10.9660,4353
10.9680,640
10.9700,928
10.9720,1488
10.9740,704
10.9760,1232
10.9780,496
10.9800,2432
10.9820,2448
10.9840,960
10.9860,560
10.9880,912
10.9900,784
10.9920,560
10.9940,592
10.9960,1040
10.9980,1280
11.0000,992
11.0020,912
11.0040,3760
11.0060,1856
11.0080,2592
11.0100,2736
11.0120,1152
11.0140,1024
11.0160,640
11.0180,4801
11.0200,704
11.0220,2352
11.0240,1488
11.0260,1568
11.0280,2528
11.0300,1104
11.0320,688
11.0340,1504
11.0360,672
11.0380,2336
11.0400,784
11.0420,1072
11.0440,1408
11.0460,784
11.0480,848
11.0500,768
11.0520,864
11.0540,1824
11.0560,832
11.0580,2576
11.0600,2656
11.0620,896
11.0640,832
11.0660,1440
11.0680,784
11.0700,2224
11.0720,1312
11.0740,1840
11.0760,1424
11.0780,816
11.0800,560
11.0820,832
11.0840,1904
11.0860,1200
11.0880,1184
11.0900,1120
11.0920,864
11.0940,768
11.0960,3792
11.0980,592
11.1000,2480
11.1020,1472
11.1040,1840
11.1060,1104
11.1080,1168
11.1100,1568
11.1120,816
11.1140,1968
11.1160,1920
11.1180,1168
11.1200,1152
11.1220,944
11.1240,2480
11.1260,1200
11.1280,704
11.1300,1488
11.1320,2688
11.1340,1728
11.1360,960
11.1380,1104
11.1400,864
11.1420,2528
11.1440,416
11.1460,1104
11.1480,576
11.1500,1424
11.1520,1104
11.1540,512
11.1560,1040
11.1580,816
11.1600,1072
11.1620,944
11.1640,768
11.1660,816
11.1680,1248
11.1700,864
11.1720,0
11.1740,976
11.1760,944
11.1780,528
11.1800,1040
11.1820,12002
11.1840,1040
11.1860,4609
11.1880,1712
11.1900,1072
11.1920,816
11.1940,640
11.1960,1776
11.1980,1072
11.2000,4737
11.2020,976
11.2040,1408
11.2060,1584
11.2080,7169
11.2100,1072
11.2120,960
11.2140,832
11.2160,816
11.2180,544
11.2200,656
11.2220,768
11.2240,3072
11.2260,4529
11.2280,1184
11.2300,2432
11.2320,1568
11.2340,1264
11.2360,1072
11.2380,1232
11.2400,496
11.2420,560
11.2440,1408
11.2460,1056
11.2480,2128
11.2500,960
11.2520,1664
11.2540,976
11.2560,2880
11.2580,1616
11.2600,880
11.2620,912
11.2640,3920
11.2660,592
11.2680,1232
11.2700,768
11.2720,1296
11.2740,688
11.2760,832
11.2780,1312
11.2800,4689
11.2820,896
11.2840,10690
11.2860,3840
11.2880,544
11.2900,944
11.2920,480
11.2940,4545
11.2960,736
11.2980,4353
11.3000,3904
11.3020,560
11.3040,1360
11.3060,1072
11.3080,864
11.3100,1872
11.3120,816
11.3140,528
11.3160,1376
11.3180,992
11.3200,1744
11.3220,704
11.3240,1152
11.3260,784
11.3280,736
11.3300,736
11.3320,5057
11.3340,704
11.3360,4625
11.3380,688
11.3400,704
11.3420,1472
11.3440,1168
11.3460,1168
11.3480,912
11.3500,976
11.3520,976
11.3540,976
11.3560,1040
11.3580,688
11.3600,944
11.3620,624
11.3640,864
11.3660,4225
11.3680,688
11.3700,720
11.3720,576
11.3740,784
11.3760,896
11.3780,688
11.3800,2016
11.3820,3104
11.3840,1984
11.3860,4769
11.3880,2560
11.3900,544
11.3920,640
11.3940,1664
11.3960,1376
11.3980,1088
11.4000,944
11.4020,432
11.4040,672
11.4060,784
11.4080,912
11.4100,816
11.4120,1040
11.4140,528
11.4160,1376
11.4180,2208
11.4200,1568
11.4220,944
11.4240,720
11.4260,1376
11.4280,1040
11.4300,1072
11.4320,1296
11.4340,1456
11.4360,1008
11.4380,736
11.4400,896
11.4420,720
11.4440,2176
11.4460,848
11.4480,1776
11.4500,2496
11.4520,688
11.4540,1424
11.4560,912
11.4580,800
11.4600,1024
11.4620,736
11.4640,656
11.4660,1072
11.4680,2400
11.4700,2336
11.4720,1184
11.4740,784
11.4760,912
11.4780,704
11.4800,656
11.4820,1184
11.4840,1024
11.4860,1184
11.4880,1072
11.4900,1344
11.4920,1696
11.4940,1056
11.4960,2672
11.4980,1600
11.5000,608
11.5020,1376
11.5040,592
11.5060,672
11.5080,592
11.5100,720
11.5120,1568
11.5140,1152
11.5160,1120
11.5180,2512
11.5200,1104
11.5220,832
11.5240,656
11.5260,720
11.5280,1184
11.5300,2112
11.5320,944
11.5340,592
11.5360,928
11.5380,1296
11.5400,816
11.5420,1104
11.5440,1328
11.5460,896
11.5480,3488
11.5500,1296
11.5520,816
11.5540,816
11.5560,816
11.5580,1056
11.5600,1264
11.5620,864
11.5640,304
11.5660,1936
11.5680,720
11.5700,1376
11.5720,992
11.5740,1248
11.5760,768
11.5780,1424
11.5800,752
11.5820,1056
11.5840,1296
11.5860,1296
11.5880,1360
11.5900,1920
11.5920,672
11.5940,3680
11.5960,1600
11.5980,2832
11.6000,4369
11.6020,832
11.6040,1248
11.6060,1280
11.6080,736
11.6100,592
11.6120,832
11.6140,944
11.6160,656
11.6180,848
11.6200,1824
11.6220,640
11.6240,496
11.6260,464
11.6280,1248
11.6300,576
11.6320,784
11.6340,1024
11.6360,464
11.6380,768
11.6400,1200
11.6420,896
11.6440,1472
11.6460,832
11.6480,384
11.6500,752
11.6520,672
11.6540,896
11.6560,1312
11.6580,2864
11.6600,3072
11.6620,608
11.6640,1152
11.6660,3168
11.6680,512
11.6700,640
11.6720,736
11.6740,2656
11.6760,560
11.6780,928
11.6800,1440
11.6820,1856
11.6840,608
11.6860,3824
11.6880,1504
11.6900,1104
11.6920,832
11.6940,832
11.6960,2048
11.6980,576
11.7000,1760
11.7020,512
11.7040,1184
11.7060,480
11.7080,912
11.7100,896
11.7120,1200
11.7140,1200
11.7160,2464
11.7180,832
11.7200,512
11.7220,784
11.7240,976
11.7260,672
11.7280,976
11.7300,704
11.7320,5185
11.7340,832
11.7360,3264
11.7380,1504
11.7400,1696
11.7420,544
11.7440,704
11.7460,1056
11.7480,672
11.7500,4433
11.7520,2096
11.7540,1536
11.7560,912
11.7580,1328
11.7600,720
11.7620,560
11.7640,912
11.7660,912
11.7680,1728
11.7700,2256
11.7720,1584
11.7740,1392
11.7760,496
11.7780,720
11.7800,1408
11.7820,1232
11.7840,1408
11.7860,768
11.7880,1248
11.7900,944
11.7920,1392
11.7940,1744
11.7960,688
11.7980,1728
11.8000,1808
11.8020,688
11.8040,928
11.8060,576
11.8080,976
11.8100,1744
11.8120,1616
11.8140,896
11.8160,640
11.8180,896
11.8200,544
11.8220,1664
11.8240,896
11.8260,1408
11.8280,1744
11.8300,1360
11.8320,864
11.8340,896
11.8360,576
11.8380,752
11.8400,880
11.8420,912
11.8440,768
11.8460,3136
11.8480,1280
11.8500,848
11.8520,976
11.8540,688
11.8560,1424
11.8580,480
11.8600,896
11.8620,368
11.8640,2224
11.8660,1024
11.8680,592
11.8700,1248
11.8720,1936
11.8740,1280
11.8760,688
11.8780,848
11.8800,640
11.8820,1200
11.8840,1056
11.8860,720
11.8880,672
11.8900,864
11.8920,1440
11.8940,1344
11.8960,448
11.8980,368
11.9000,4721
11.9020,1360
11.9040,912
11.9060,1216
11.9080,864
11.9100,928
11.9120,2240
11.9140,1040
11.9160,912
11.9180,464
11.9200,896
11.9220,992
11.9240,1184
11.9260,1232
11.9280,848
11.9300,4097
11.9320,3152
11.9340,816
11.9360,672
11.9380,640
11.9400,384
11.9420,816
11.9440,960
11.9460,608
11.9480,640
11.9500,656
11.9520,1168
11.9540,1232
11.9560,1328
11.9580,800
11.9600,1056
11.9620,1328
11.9640,576
11.9660,544
11.9680,912
11.9700,1072
11.9720,672
11.9740,1056
11.9760,864
11.9780,976
11.9800,1008
11.9820,960
11.9840,832
11.9860,1232
11.9880,1184
11.9900,704
11.9920,1840
11.9940,576
11.9960,3360
11.9980,512
12.0000,1040
12.0020,1104
12.0040,1264
12.0060,2272
12.0080,528
12.0100,1088
12.0120,1168
12.0140,1024
12.0160,784
12.0180,800
12.0200,704
12.0220,1008
12.0240,848
12.0260,1104
12.0280,896
12.0300,704
12.0320,1280
12.0340,896
12.0360,720
12.0380,800
12.0400,1328
12.0420,800
12.0440,1040
12.0460,592
12.0480,528
12.0500,672
12.0520,848
12.0540,1120
12.0560,592
12.0580,416
12.0600,1200
12.0620,976
12.0640,800
12.0660,800
12.0680,496
12.0700,912
12.0720,288
12.0740,1056
12.0760,3152
12.0780,784
12.0800,480
12.0820,2096
12.0840,1072
12.0860,1440
12.0880,704
12.0900,1040
12.0920,848
12.0940,544
12.0960,1440
12.0980,864
12.1000,480
12.1020,960
12.1040,400
12.1060,768
12.1080,480
12.1100,992
12.1120,1312
12.1140,992
12.1160,432
12.1180,3104
12.1200,1136
12.1220,1584
12.1240,2176
12.1260,656
12.1280,1952
12.1300,704
12.1320,2096
12.1340,1952
12.1360,416
12.1380,896
12.1400,512
12.1420,704
12.1440,1360
12.1460,896
12.1480,896
12.1500,1584
12.1520,2848
12.1540,2880
12.1560,752
12.1580,816
12.1600,1312
12.1620,768
12.1640,800
12.1660,352
12.1680,4289
12.1700,1152
12.1720,1152
12.1740,928
12.1760,704
12.1780,832
12.1800,432
12.1820,1392
12.1840,640
12.1860,1440
12.1880,1280
12.1900,672
12.1920,672
12.1940,1856
12.1960,624
12.1980,1024
12.2000,2544
12.2020,3552
12.2040,400
12.2060,1456
12.2080,1248
12.2100,992
12.2120,720
12.2140,672
12.2160,4769
12.2180,1344
12.2200,960
12.2220,576
12.2240,480
12.2260,1264
12.2280,800
12.2300,2432
12.2320,5569
12.2340,1152
12.2360,912
12.2380,912
12.2400,944
12.2420,640
12.2440,656
12.2460,1280
12.2480,4689
12.2500,3712
12.2520,480
12.2540,1472
12.2560,1040
12.2580,656
12.2600,960
12.2620,1488
12.2640,512
12.2660,720
12.2680,768
12.2700,608
12.2720,1280
12.2740,736
12.2760,928
12.2780,1056
12.2800,528
12.2820,976
12.2840,496
12.2860,1024
12.2880,912
12.2900,1120
12.2920,880
12.2940,2336
12.2960,3728
12.2980,592
12.3000,816
12.3020,1072
12.3040,976
12.3060,1312
12.3080,944
12.3100,768
12.3120,1520
12.3140,7073
12.3160,1232
12.3180,1728
12.3200,608
12.3220,784
12.3240,432
12.3260,432
12.3280,1312
12.3300,1664
12.3320,624
12.3340,1744
12.3360,1296
12.3380,832
12.3400,2048
12.3420,736
12.3440,2000
12.3460,896
12.3480,1168
12.3500,800
12.3520,704
12.3540,5185
12.3560,2768
12.3580,800
12.3600,576
12.3620,992
12.3640,2016
12.3660,768
12.3680,592
12.3700,1216
12.3720,1360
12.3740,1936
12.3760,944
12.3780,832
12.3800,656
12.3820,2496
12.3840,656
12.3860,1248
12.3880,1040
12.3900,704
12.3920,848
12.3940,592
12.3960,1472
12.3980,1232
12.4000,960
12.4020,576
12.4040,704
12.4060,1184
12.4080,576
12.4100,896
12.4120,4193
12.4140,1184
12.4160,3136
12.4180,3584
12.4200,4337
12.4220,1376
12.4240,736
12.4260,672
12.4280,1632
12.4300,736
12.4320,1424
12.4340,1280
12.4360,800
12.4380,2080
12.4400,2192
12.4420,240
12.4440,1536
12.4460,480
12.4480,2048
12.4500,848
12.4520,688
12.4540,720
12.4560,992
12.4580,768
12.4600,2304
12.4620,1264
12.4640,976
12.4660,1472
12.4680,896
12.4700,1344
12.4720,1024
12.4740,832
12.4760,544
12.4780,800
12.4800,528
12.4820,2256
12.4840,912
12.4860,864
12.4880,752
12.4900,1168
12.4920,752
12.4940,1376
12.4960,560
12.4980,1152
12.5000,992
12.5020,4497
12.5040,3984
12.5060,3664
12.5080,6273
12.5100,1056
12.5120,1296
12.5140,544
12.5160,1056
12.5180,528
12.5200,496
12.5220,528
12.5240,1136
12.5260,560
12.5280,816
12.5300,5521
12.5320,1808
12.5340,4113
12.5360,1712
12.5380,464
12.5400,736
12.5420,688
12.5440,736
12.5460,832
12.5480,944
12.5500,2432
12.5520,640
12.5540,544
12.5560,1408
12.5580,896
12.5600,640
12.5620,384
12.5640,592
12.5660,1248
12.5680,8578
12.5700,3104
12.5720,1040
12.5740,2384
12.5760,928
12.5780,496
12.5800,576
12.5820,896
12.5840,832
12.5860,2256
12.5880,736
12.5900,784
12.5920,944
12.5940,512
12.5960,1024
12.5980,1056
12.6000,560
12.6020,592
12.6040,768
12.6060,528
12.6080,912
12.6100,1552
12.6120,1744
12.6140,1024
12.6160,960
12.6180,736
12.6200,656
12.6220,848
12.6240,944
12.6260,800
12.6280,528
12.6300,752
12.6320,928
12.6340,432
12.6360,320
12.6380,2784
12.6400,1232
12.6420,928
12.6440,1296
12.6460,608
12.6480,1456
12.6500,2144
12.6520,2336
12.6540,1216
12.6560,560
12.6580,1600
12.6600,1072
12.6620,736
12.6640,704
12.6660,7969
12.6680,960
12.6700,992
12.6720,848
12.6740,1456
12.6760,560
12.6780,1088
12.6800,656
12.6820,592
12.6840,544
12.6860,512
12.6880,1344
12.6900,800
12.6920,2720
12.6940,480
12.6960,800
12.6980,4289
12.7000,1792
12.7020,912
12.7040,480
12.7060,8370
12.7080,12339
12.7100,1296
12.7120,1168
12.7140,496
12.7160,512
12.7180,896
12.7200,9714
12.7220,12194
12.7240,8914
12.7260,1712
12.7280,1056
12.7300,864
12.7320,928
12.7340,528
12.7360,896
12.7380,1376
12.7400,1264
12.7420,2224
12.7440,1936
12.7460,976
12.7480,1472
12.7500,784
12.7520,1312
12.7540,528
12.7560,528
12.7580,816
12.7600,2352
12.7620,1184
12.7640,576
12.7660,3856
12.7680,3392
12.7700,528
12.7720,480
12.7740,800
12.7760,688
12.7780,576
12.7800,1632
12.7820,1360
12.7840,448
12.7860,608
12.7880,3136
12.7900,1712
12.7920,1040
12.7940,896
12.7960,1856
12.7980,1088
12.8000,1008
12.8020,928
12.8040,544
12.8060,848
12.8080,880
12.8100,1072
12.8120,944
12.8140,1040
12.8160,512
12.8180,2832
12.8200,688
12.8220,720
12.8240,528
12.8260,640
12.8280,352
12.8300,1296
12.8320,2208
12.8340,1376
12.8360,1264
12.8380,1120
12.8400,6353
12.8420,1216
12.8440,784
12.8460,784
12.8480,800
12.8500,992
12.8520,512
12.8540,1152
12.8560,1168
12.8580,1008
12.8600,1296
12.8620,704
12.8640,1456
12.8660,400
12.8680,592
12.8700,1312
12.8720,672
12.8740,880
12.8760,1184
12.8780,3808
12.8800,4449
12.8820,2752
12.8840,928
12.8860,592
12.8880,336
12.8900,1328
12.8920,752
12.8940,736
12.8960,1680
12.8980,832
12.9000,592
12.9020,576
12.9040,976
12.9060,736
12.9080,304
12.9100,1376
12.9120,704
12.9140,1632
12.9160,1264
12.9180,1216
12.9200,912
12.9220,3248
12.9240,1104
12.9260,720
12.9280,992
12.9300,2352
12.9320,3504
12.9340,832
12.9360,768
12.9380,544
12.9400,720
12.9420,8274
12.9440,12819
12.9460,1440
12.9480,2400
12.9500,384
12.9520,1664
12.9540,1072
12.9560,592
12.9580,912
12.9600,1984
12.9620,784
12.9640,976
12.9660,640
12.9680,3200
12.9700,1696
12.9720,560
12.9740,592
12.9760,896
12.9780,800
12.9800,2816
12.9820,1648
12.9840,512
12.9860,2000
12.9880,544
12.9900,576
12.9920,800
12.9940,832
12.9960,496
12.9980,688
13.0000,1296
13.0020,704
13.0040,992
13.0060,736
13.0080,976
13.0100,736
13.0120,720
13.0140,912
13.0160,1280
13.0180,2688
13.0200,992
13.0220,512
13.0240,416
13.0260,848
13.0280,864
13.0300,1568
13.0320,1056
13.0340,736
13.0360,592
13.0380,544
13.0400,752
13.0420,3856
13.0440,2704
13.0460,656
13.0480,544
13.0500,656
13.0520,992
13.0540,448
13.0560,1088
13.0580,720
13.0600,736
13.0620,960
13.0640,416
13.0660,608
13.0680,1056
13.0700,752
13.0720,528
13.0740,768
13.0760,2720
13.0780,2560
13.0800,704
13.0820,1328
13.0840,1312
13.0860,768
13.0880,992
13.0900,2480
13.0920,1424
13.0940,928
13.0960,864
13.0980,1024
13.1000,800
13.1020,1296
13.1040,288
13.1060,896
13.1080,720
13.1100,912
13.1120,656
13.1140,816
13.1160,544
13.1180,576
13.1200,544
13.1220,608
13.1240,448
13.1260,320
13.1280,560
13.1300,672
13.1320,560
13.1340,304
13.1360,2816
13.1380,6737
13.1400,5073
13.1420,7185
13.1440,2720
13.1460,672
13.1480,576
13.1500,672
13.1520,992
13.1540,576
13.1560,832
13.1580,784
13.1600,720
13.1620,592
13.1640,752
13.1660,736
13.1680,2096
13.1700,1472
13.1720,464
13.1740,640
13.1760,1216
13.1780,672
13.1800,944
13.1820,1232
13.1840,8210
13.1860,1808
13.1880,576
13.1900,592
13.1920,3264
13.1940,2096
13.1960,1088
13.1980,1184
13.2000,432
13.2020,416
13.2040,1360
13.2060,1424
13.2080,736
13.2100,560
13.2120,544
13.2140,992
13.2160,1440
13.2180,672
13.2200,736
13.2220,512
13.2240,720
13.2260,912
13.2280,1200
13.2300,800
13.2320,512
13.2340,576
13.2360,1184
13.2380,576
13.2400,1344
13.2420,912
13.2440,1408
13.2460,720
13.2480,480
13.2500,288
13.2520,976
13.2540,448
13.2560,4097
13.2580,1088
13.2600,2128
13.2620,1440
13.2640,1024
13.2660,512
13.2680,432
13.2700,480
13.2720,12979
13.2740,6929
13.2760,1616
13.2780,832
13.2800,848
13.2820,2816
13.2840,4161
13.2860,1120
13.2880,832
13.2900,592
13.2920,1664
13.2940,1024
13.2960,928
13.2980,832
13.3000,2208
13.3020,1040
13.3040,1184
13.3060,912
13.3080,1472
13.3100,2496
13.3120,560
13.3140,704
13.3160,912
13.3180,1088
13.3200,640
13.3220,800
13.3240,656
13.3260,816
13.3280,1056
13.3300,576
13.3320,784
13.3340,4961
13.3360,672
13.3380,416
13.3400,720
13.3420,1184
13.3440,528
13.3460,1232
13.3480,800
13.3500,640
13.3520,672
13.3540,1408
13.3560,720
13.3580,640
13.3600,1200
13.3620,3632
13.3640,4193
13.3660,400
13.3680,640
13.3700,480
13.3720,1408
13.3740,816
13.3760,1168
13.3780,496
13.3800,3520
13.3820,3344
13.3840,528
13.3860,640
13.3880,1184
13.3900,656
13.3920,864
13.3940,1040
13.3960,544
13.3980,608
13.4000,1616
13.4020,656
13.4040,528
13.4060,1024
13.4080,2080
13.4100,2592
13.4120,1040
13.4140,1024
13.4160,6801
13.4180,13971
13.4200,784
13.4220,912
13.4240,656
13.4260,640
13.4280,2048
13.4300,832
13.4320,624
13.4340,3040
13.4360,3104
13.4380,624
13.4400,832
13.4420,736
13.4440,1392
13.4460,1232
13.4480,1072
13.4500,448
13.4520,1424
13.4540,864
13.4560,464
13.4580,576
13.4600,3680
13.4620,3776
13.4640,960
13.4660,5697
13.4680,5217
13.4700,960
13.4720,512
13.4740,912
13.4760,832
13.4780,944
13.4800,672
13.4820,672
13.4840,608
13.4860,960
13.4880,1104
13.4900,800
13.4920,1152
13.4940,688
13.4960,688
13.4980,656
13.5000,592
13.5020,1008
13.5040,864
13.5060,784
13.5080,3264
13.5100,1056
13.5120,384
13.5140,1168
13.5160,736
13.5180,960
13.5200,1616
13.5220,720
13.5240,1104
13.5260,544
13.5280,720
13.5300,672
13.5320,720
13.5340,944
13.5360,688
13.5380,608
13.5400,448
13.5420,2560
13.5440,2048
13.5460,1280
13.5480,704
13.5500,384
13.5520,640
13.5540,1760
13.5560,640
13.5580,512
13.5600,2112
13.5620,3920
13.5640,17652
13.5660,592
13.5680,1632
13.5700,1168
13.5720,576
13.5740,816
13.5760,416
13.5780,1456
13.5800,944
13.5820,1280
13.5840,1424
13.5860,832
13.5880,720
13.5900,176
13.5920,672
13.5940,944
13.5960,544
13.5980,448
13.6000,1328
13.6020,880
13.6040,912
13.6060,672
13.6080,1472
13.6100,1184
13.6120,1408
13.6140,1040
13.6160,416
13.6180,2128
13.6200,1312
13.6220,512
13.6240,656
13.6260,3552
13.6280,8850
13.6300,1312
13.6320,1840
13.6340,976
13.6360,1456
13.6380,528
13.6400,608
13.6420,1952
13.6440,576
13.6460,1072
13.6480,784
13.6500,800
13.6520,1024
13.6540,4737
13.6560,1152
13.6580,1184
13.6600,672
13.6620,384
13.6640,3696
13.6660,1712
13.6680,3984
13.6700,11682
13.6720,576
13.6740,800
13.6760,736
13.6780,320
13.6800,832
13.6820,1152
13.6840,1552
13.6860,6945
13.6880,2944
13.6900,528
13.6920,912
13.6940,720
13.6960,1200
13.6980,336
13.7000,2912
13.7020,1072
13.7040,1296
13.7060,2256
13.7080,592
13.7100,640
13.7120,512
13.7140,464
13.7160,560
13.7180,560
13.7200,432
13.7220,1200
13.7240,1504
13.7260,848
13.7280,3456
13.7300,528
13.7320,2128
13.7340,752
13.7360,640
13.7380,912
13.7400,992
13.7420,1200
13.7440,1056
13.7460,864
13.7480,1312
13.7500,1168
13.7520,912
13.7540,800
13.7560,1104
13.7580,1024
13.7600,2000
13.7620,5681
13.7640,1840
13.7660,3152
13.7680,2464
13.7700,1552
13.7720,688
13.7740,5777
13.7760,11666
13.7780,13123
13.7800,9346
13.7820,18836
13.7840,2480
13.7860,1216
13.7880,896
13.7900,1248
13.7920,1888
13.7940,864
13.7960,880
13.7980,800
13.8000,752
13.8020,2912
13.8040,1088
13.8060,2064
13.8080,960
13.8100,768
13.8120,672
13.8140,1024
13.8160,2352
13.8180,544
13.8200,1072
13.8220,640
13.8240,3504
13.8260,1024
13.8280,1200
13.8300,768
13.8320,944
13.8340,640
13.8360,1280
13.8380,928
13.8400,832
13.8420,1280
13.8440,864
13.8460,1216
13.8480,784
13.8500,800
13.8520,1472
13.8540,8065
13.8560,1024
13.8580,992
13.8600,1408
13.8620,2000
13.8640,1968
13.8660,2048
13.8680,1120
13.8700,784
13.8720,928
13.8740,1152
13.8760,1296
13.8780,560
13.8800,960
13.8820,512
13.8840,1568
13.8860,1280
13.8880,1088
13.8900,1120
13.8920,1584
13.8940,1312
13.8960,1120
13.8980,768
13.9000,5713
13.9020,10130
13.9040,2144
13.9060,2064
13.9080,2576
13.9100,2096
13.9120,656
13.9140,832
13.9160,496
13.9180,784
13.9200,704
13.9220,1488
13.9240,1824
13.9260,4833
13.9280,1584
13.9300,1056
13.9320,816
13.9340,1216
13.9360,896
13.9380,1056
13.9400,6657
13.9420,1504
13.9440,960
13.9460,1168
13.9480,1072
13.9500,528
13.9520,800
13.9540,3536
13.9560,896
13.9580,784
13.9600,800
13.9620,1168
13.9640,720
13.9660,768
13.9680,1440
13.9700,784
13.9720,688
13.9740,576
13.9760,704
13.9780,912
13.9800,912
13.9820,1936
13.9840,640
13.9860,1552
13.9880,8258
13.9900,22229
13.9920,800
13.9940,672
13.9960,1072
13.9980,848
14.0000,736
14.0020,3536
14.0040,848
14.0060,1104
14.0080,736
14.0100,816
14.0120,1024
14.0140,6945
14.0160,1328
14.0180,1104
14.0200,3904
14.0220,2048
14.0240,864
14.0260,784
14.0280,1056
14.0300,752
14.0320,1856
14.0340,720
14.0360,736
14.0380,960
14.0400,1328
14.0420,704
14.0440,1232
14.0460,608
14.0480,640
14.0500,928
14.0520,1104
14.0540,800
14.0560,1072
14.0580,992
14.0600,800
14.0620,528
14.0640,896
14.0660,640
14.0680,736
14.0700,896
14.0720,800
14.0740,320
14.0760,448
14.0780,784
14.0800,1232
14.0820,896
14.0840,1792
14.0860,800
14.0880,704
14.0900,1808
14.0920,768
14.0940,848
14.0960,1296
14.0980,1072
14.1000,2752
14.1020,752
14.1040,720
14.1060,976
14.1080,1376
14.1100,4064
14.1120,4737
14.1140,3728
14.1160,912
14.1180,592
14.1200,960
14.1220,5345
14.1240,816
14.1260,2576
14.1280,2720
14.1300,800
14.1320,992
14.1340,2048
14.1360,800
14.1380,944
14.1400,640
14.1420,752
14.1440,2496
14.1460,1968
14.1480,480
14.1500,912
14.1520,656
14.1540,736
14.1560,1568
14.1580,1056
14.1600,592
14.1620,688
14.1640,1232
14.1660,512
14.1680,5553
14.1700,4113
14.1720,432
14.1740,896
14.1760,768
14.1780,944
14.1800,784
14.1820,1488
14.1840,864
14.1860,7153
14.1880,1360
14.1900,1360
14.1920,704
14.1940,656
14.1960,1184
14.1980,784
14.2000,928
14.2020,832
14.2040,688
14.2060,656
14.2080,3232
14.2100,1296
14.2120,992
14.2140,448
14.2160,688
14.2180,1120
14.2200,8177
14.2220,4497
14.2240,1936
14.2260,5025
14.2280,4433
14.2300,3280
14.2320,944
14.2340,1408
14.2360,1280
14.2380,864
14.2400,832
14.2420,544
14.2440,944
14.2460,1376
14.2480,944
14.2500,736
14.2520,736
14.2540,2656
14.2560,880
14.2580,656
14.2600,1120
14.2620,864
14.2640,704
14.2660,1088
14.2680,672
14.2700,1296
14.2720,1248
14.2740,1296
14.2760,3488
14.2780,1952
14.2800,784
14.2820,832
14.2840,672
14.2860,1024
14.2880,608
14.2900,1056
14.2920,1616
14.2940,480
14.2960,1168
14.2980,544
14.3000,704
14.3020,560
14.3040,624
14.3060,832
14.3080,560
14.3100,960
14.3120,688
14.3140,1184
14.3160,4865
14.3180,3376
14.3200,640
14.3220,592
14.3240,816
14.3260,1088
14.3280,864
14.3300,768
14.3320,768
14.3340,5505
14.3360,480
14.3380,2272
14.3400,2080
14.3420,832
14.3440,848
14.3460,912
14.3480,976
14.3500,1280
14.3520,720
14.3540,960
14.3560,12194
14.3580,3792
14.3600,1040
14.3620,736
14.3640,992
14.3660,1216
14.3680,2320
14.3700,768
14.3720,608
14.3740,832
14.3760,944
14.3780,960
14.3800,1568
14.3820,4305
14.3840,896
14.3860,672
14.3880,1328
14.3900,688
14.3920,1440
14.3940,3040
14.3960,720
14.3980,528
14.4000,912
14.4020,688
14.4040,784
14.4060,1232
14.4080,1328
14.4100,896
14.4120,1280
14.4140,5585
14.4160,992
14.4180,7121
14.4200,5425
14.4220,3776
14.4240,784
14.4260,1408
14.4280,1424
14.4300,640
14.4320,1328
14.4340,800
14.4360,640
14.4380,1280
14.4400,720
14.4420,1168
14.4440,656
14.4460,1024
14.4480,576
14.4500,1456
14.4520,1248
14.4540,592
14.4560,784
14.4580,928
14.4600,1328
14.4620,720
14.4640,3456
14.4660,1104
14.4680,672
14.4700,608
14.4720,832
14.4740,1104
14.4760,2592
14.4780,1152
14.4800,2736
14.4820,2240
14.4840,1104
14.4860,1056
14.4880,800
14.4900,800
14.4920,880
14.4940,960
14.4960,848
14.4980,688
14.5000,992
14.5020,672
14.5040,1024
14.5060,1232
14.5080,832
14.5100,944
14.5120,6449
14.5140,5553
14.5160,1456
14.5180,2752
14.5200,1696
14.5220,688
14.5240,4689
14.5260,1040
14.5280,1968
14.5300,448
14.5320,4064
14.5340,1664
14.5360,720
14.5380,832
14.5400,1264
14.5420,720
14.5440,592
14.5460,1728
14.5480,688
14.5500,2960
14.5520,2496
14.5540,640
14.5560,976
14.5580,4273
14.5600,1408
14.5620,3408
14.5640,720
14.5660,1248
14.5680,832
14.5700,800
14.5720,912
14.5740,768
14.5760,544
14.5780,896
14.5800,5057
14.5820,2400
14.5840,1344
14.5860,912
14.5880,1248
14.5900,2816
14.5920,2256
14.5940,1152
14.5960,1120
14.5980,2448
14.6000,464
14.6020,960
14.6040,448
14.6060,848
14.6080,896
14.6100,1504
14.6120,640
14.6140,912
14.6160,768
14.6180,528
14.6200,544
14.6220,1072
14.6240,416
14.6260,960
14.6280,912
14.6300,960
14.6320,832
14.6340,736
14.6360,1120
14.6380,704
14.6400,848
14.6420,816
14.6440,1024
14.6460,1744
14.6480,1152
14.6500,720
14.6520,1184
14.6540,624
14.6560,2128
14.6580,1216
14.6600,3040
14.6620,976
14.6640,864
14.6660,736
14.6680,640
14.6700,896
14.6720,960
14.6740,1088
14.6760,560
14.6780,608
14.6800,512
14.6820,9730
14.6840,1680
14.6860,896
14.6880,1792
14.6900,1152
14.6920,928
14.6940,1984
14.6960,864
14.6980,768
14.7000,544
14.7020,560
14.7040,976
14.7060,688
14.7080,5489
14.7100,1616
14.7120,608
14.7140,1184
14.7160,704
14.7180,1024
14.7200,1024
14.7220,640
14.7240,592
14.7260,736
14.7280,704
14.7300,800
14.7320,976
14.7340,800
14.7360,1488
14.7380,848
14.7400,928
14.7420,1344
14.7440,848
14.7460,848
14.7480,3968
14.7500,736
14.7520,1344
14.7540,1696
14.7560,1232
14.7580,1344
14.7600,960
14.7620,704
14.7640,976
14.7660,560
14.7680,1072
14.7700,4817
14.7720,3232
14.7740,640
14.7760,736
14.7780,528
14.7800,784
14.7820,592
14.7840,1056
14.7860,608
14.7880,320
14.7900,848
14.7920,816
14.7940,752
14.7960,704
14.7980,1856
14.8000,944
14.8020,800
14.8040,448
14.8060,4657
14.8080,2592
14.8100,768
14.8120,576
14.8140,576
14.8160,1696
14.8180,2208
14.8200,1168
14.8220,1440
14.8240,784
14.8260,1184
14.8280,4753
14.8300,1184
14.8320,480
14.8340,784
14.8360,656
14.8380,480
14.8400,10482
14.8420,6945
14.8440,256
14.8460,2080
14.8480,1104
14.8500,912
14.8520,1456
14.8540,4737
14.8560,2976
14.8580,1104
14.8600,544
14.8620,976
14.8640,768
14.8660,736
14.8680,1264
14.8700,432
14.8720,672
14.8740,896
14.8760,528
14.8780,992
14.8800,656
14.8820,1280
14.8840,512
14.8860,464
14.8880,448
14.8900,512
14.8920,2224
14.8940,784
14.8960,800
14.8980,1056
14.9000,976
14.9020,704
14.9040,608
14.9060,752
14.9080,832
14.9100,992
14.9120,624
14.9140,496
14.9160,736
14.9180,2688
14.9200,1328
14.9220,848
14.9240,496
14.9260,1472
14.9280,1024
14.9300,1024
14.9320,704
14.9340,688
14.9360,736
14.9380,688
14.9400,3408
14.9420,960
14.9440,1152
14.9460,3552
14.9480,912
14.9500,1072
14.9520,4113
14.9540,4929
14.9560,2192
14.9580,1200
14.9600,976
14.9620,512
14.9640,544
14.9660,1200
14.9680,512
14.9700,896
14.9720,672
14.9740,560
14.9760,528
14.9780,1168
14.9800,544
14.9820,912
14.9840,480
14.9860,976
14.9880,960
14.9900,464
14.9920,512
14.9940,1248
14.9960,800
14.9980,1712
15.0000,1216
15.0020,1712
15.0040,672
15.0060,736
15.0080,1360
15.0100,1120
15.0120,848
15.0140,896
15.0160,1040
15.0180,784
15.0200,1120
15.0220,976
15.0240,1152
15.0260,1344
15.0280,1104
15.0300,672
15.0320,1008
15.0340,1024
15.0360,944
15.0380,768
15.0400,544
15.0420,960
15.0440,1488
15.0460,1488
15.0480,1152
15.0500,784
15.0520,1280
15.0540,2064
15.0560,560
15.0580,832
15.0600,704
15.0620,736
15.0640,1184
15.0660,784
15.0680,1088
15.0700,640
15.0720,416
15.0740,752
15.0760,912
15.0780,944
15.0800,992
15.0820,512
15.0840,608
15.0860,784
15.0880,864
15.0900,832
15.0920,2464
15.0940,688
15.0960,576
15.0980,592
15.1000,576
15.1020,864
15.1040,912
15.1060,704
15.1080,864
15.1100,1264
15.1120,864
15.1140,912
15.1160,800
15.1180,800
15.1200,800
15.1220,688
15.1240,1408
15.1260,384
15.1280,832
15.1300,352
15.1320,928
15.1340,13827
15.1360,9522
15.1380,3120
15.1400,496
15.1420,1024
15.1440,1360
15.1460,544
15.1480,1824
15.1500,5649
15.1520,2576
15.1540,1024
15.1560,1456
15.1580,1552
15.1600,672
15.1620,1040
15.1640,784
15.1660,1600
15.1680,208
15.1700,352
15.1720,1440
15.1740,944
15.1760,1296
15.1780,544
15.1800,2592
15.1820,3600
15.1840,1168
15.1860,624
15.1880,320
15.1900,1024
15.1920,688
15.1940,688
15.1960,23429
15.1980,16035
15.2000,464
15.2020,11538
15.2040,8802
15.2060,2240
15.2080,2880
15.2100,512
15.2120,928
15.2140,1248
15.2160,576
15.2180,2240
15.2200,448
15.2220,944
15.2240,960
15.2260,576
15.2280,1184
15.2300,352
15.2320,880
15.2340,768
15.2360,432
15.2380,272
15.2400,1120
15.2420,608
15.2440,1920
15.2460,800
15.2480,560
15.2500,1104
15.2520,1696
15.2540,800
15.2560,1088
15.2580,656
15.2600,912
15.2620,896
15.2640,496
15.2660,2464
15.2680,3200
15.2700,1152
15.2720,1216
15.2740,464
15.2760,784
15.2780,832
15.2800,592
15.2820,800
15.2840,1216
15.2860,5905
15.2880,3712
15.2900,544
15.2920,672
15.2940,608
15.2960,880
15.2980,3248
15.3000,2368
15.3020,1040
15.3040,1760
15.3060,3216
15.3080,11058
15.3100,15299
15.3120,1744
15.3140,1024
15.3160,960
15.3180,5473
15.3200,1760
15.3220,1712
15.3240,688
15.3260,672
15.3280,784
15.3300,1872
15.3320,992
15.3340,720
15.3360,2736
15.3380,1536
15.3400,48091
15.3420,736
15.3440,784
15.3460,656
15.3480,464
15.3500,784
15.3520,912
15.3540,1296
15.3560,832
15.3580,592
15.3600,768
15.3620,1488
15.3640,784
15.3660,1488
15.3680,944
15.3700,832
15.3720,800
15.3740,784
15.3760,720
15.3780,512
15.3800,1680
15.3820,720
15.3840,544
15.3860,800
15.3880,1168
15.3900,7905
15.3920,3264
15.3940,1088
15.3960,416
15.3980,800
15.4000,944
15.4020,2192
15.4040,2512
15.4060,1824
15.4080,560
15.4100,672
15.4120,1888
15.4140,640
15.4160,704
15.4180,800
15.4200,1120
15.4220,448
15.4240,736
15.4260,512
15.4280,688
15.4300,1696
15.4320,480
15.4340,704
15.4360,592
15.4380,960
15.4400,416
15.4420,576
15.4440,640
15.4460,976
15.4480,1280
15.4500,1712
15.4520,848
15.4540,544
15.4560,3264
15.4580,6049
15.4600,8914
15.4620,15987
15.4640,800
15.4660,656
15.4680,5345
15.4700,2848
15.4720,512
15.4740,496
15.4760,432
15.4780,1232
15.4800,2192
15.4820,720
15.4840,336
15.4860,3504
15.4880,1632
15.4900,1360
15.4920,3968
15.4940,5969
15.4960,1360
15.4980,3104
15.5000,816
15.5020,848
15.5040,768
15.5060,848
15.5080,1040
15.5100,672
15.5120,896
15.5140,1440
15.5160,1232
15.5180,592
15.5200,2176
15.5220,560
15.5240,1248
15.5260,464
15.5280,1728
15.5300,432
15.5320,1104
15.5340,688
15.5360,1952
15.5380,928
15.5400,688
15.5420,1088
15.5440,960
15.5460,736
15.5480,752
15.5500,544
15.5520,1456
15.5540,1056
15.5560,832
15.5580,512
15.5600,1168
15.5620,768
15.5640,1440
15.5660,1008
15.5680,9922
15.5700,3232
15.5720,1008
15.5740,3664
15.5760,1840
15.5780,448
15.5800,1568
15.5820,1968
15.5840,640
15.5860,816
15.5880,1152
15.5900,864
15.5920,2400
15.5940,720
15.5960,1040
15.5980,736
15.6000,704
15.6020,1296
15.6040,1024
15.6060,1008
15.6080,2816
15.6100,1040
15.6120,5697
15.6140,1120
15.6160,336
15.6180,1488
15.6200,1248
15.6220,816
15.6240,1056
15.6260,2384
15.6280,2368
15.6300,464
15.6320,896
15.6340,960
15.6360,2016
15.6380,480
15.6400,864
15.6420,2176
15.6440,1808
15.6460,672
15.6480,832
15.6500,704
15.6520,912
15.6540,768
15.6560,560
15.6580,1376
15.6600,928
15.6620,2000
15.6640,1088
15.6660,784
15.6680,608
15.6700,1104
15.6720,6049
15.6740,1872
15.6760,12867
15.6780,7457
15.6800,1872
15.6820,720
15.6840,992
15.6860,2512
15.6880,880
15.6900,448
15.6920,656
15.6940,2368
15.6960,2432
15.6980,3088
15.7000,1280
15.7020,832
15.7040,816
15.7060,1200
15.7080,928
15.7100,912
15.7120,1312
15.7140,912
15.7160,6273
15.7180,4529
15.7200,8754
15.7220,1680
15.7240,9762
15.7260,7121
15.7280,1328
15.7300,1840
15.7320,1424
15.7340,1184
15.7360,928
15.7380,864
15.7400,832
15.7420,816
15.7440,2720
15.7460,800
15.7480,1120
15.7500,1216
15.7520,1936
15.7540,560
15.7560,528
15.7580,656
15.7600,304
15.7620,880
15.7640,752
15.7660,1232
15.7680,592
15.7700,1104
15.7720,768
15.7740,752
15.7760,3568
15.7780,1568
15.7800,1456
15.7820,592
15.7840,1120
15.7860,1088
15.7880,720
15.7900,656
15.7920,3072
15.7940,1536
15.7960,1424
15.7980,4225
15.8000,1600
15.8020,928
15.8040,1360
15.8060,1536
15.8080,11810
15.8100,8161
15.8120,1424
15.8140,656
15.8160,1152
15.8180,2624
15.8200,7345
15.8220,6273
15.8240,4113
15.8260,1280
15.8280,1040
15.8300,1248
15.8320,688
15.8340,992
15.8360,640
15.8380,672
15.8400,672
15.8420,1264
15.8440,1472
15.8460,528
15.8480,944
15.8500,1952
15.8520,752
15.8540,4177
15.8560,1744
15.8580,944
15.8600,1248
15.8620,1120
15.8640,640
15.8660,832
15.8680,800
15.8700,736
15.8720,1024
15.8740,736
15.8760,944
15.8780,10194
15.8800,2624
15.8820,1328
15.8840,704
15.8860,3552
15.8880,1472
15.8900,6145
15.8920,7009
15.8940,11346
15.8960,2144
15.8980,1632
15.9000,1136
15.9020,1280
15.9040,976
15.9060,1328
15.9080,1088
15.9100,992
15.9120,1312
15.9140,7649
15.9160,1488
15.9180,5761
15.9200,1344
15.9220,3216
15.9240,688
15.9260,2992
15.9280,944
15.9300,544
15.9320,1296
15.9340,1408
15.9360,3392
15.9380,1728
15.9400,912
15.9420,1296
15.9440,1024
15.9460,7457
15.9480,1024
15.9500,1024
15.9520,816
15.9540,3904
15.9560,1168
15.9580,1088
15.9600,1792
15.9620,6081
15.9640,560
15.9660,1792
15.9680,6305
15.9700,2192
15.9720,1440
15.9740,928
15.9760,2960
15.9780,11714
15.9800,4225
15.9820,1280
15.9840,1216
15.9860,1520
15.9880,1120
15.9900,512
15.9920,3008
15.9940,576
15.9960,880
15.9980,1072
16.0000,864
16.0020,1296
16.0040,720
16.0060,1280
16.0080,1008
16.0100,864
16.0120,912
16.0140,1024
16.0160,720
16.0180,432
16.0200,1264
16.0220,1504
16.0240,1184
16.0260,1408
16.0280,512
16.0300,656
16.0320,816
16.0340,688
16.0360,5457
16.0380,1168
16.0400,1184
16.0420,832
16.0440,688
16.0460,1312
16.0480,8033
16.0500,5329
16.0520,1584
16.0540,7057
16.0560,1152
16.0580,2256
16.0600,1552
16.0620,4801
16.0640,1296
16.0660,832
16.0680,7169
16.0700,5153
16.0720,2224
16.0740,912
16.0760,1968
16.0780,816
16.0800,5617
16.0820,4048
16.0840,5617
16.0860,736
16.0880,5905
16.0900,1280
16.0920,1104
16.0940,1104
16.0960,1456
16.0980,1152
16.1000,816
16.1020,4305
16.1040,800
16.1060,3584
16.1080,864
16.1100,2784
16.1120,5937
16.1140,1472
16.1160,1792
16.1180,1152
16.1200,2400
16.1220,2896
16.1240,976
16.1260,1552
16.1280,1168
16.1300,1104
16.1320,816
16.1340,768
16.1360,2656
16.1380,2576
16.1400,1104
16.1420,1664
16.1440,912
16.1460,736
16.1480,3648
16.1500,2992
16.1520,5809
16.1540,1040
16.1560,3040
16.1580,1584
16.1600,3136
16.1620,7425
16.1640,2880
16.1660,1360
16.1680,944
16.1700,1120
16.1720,7489
16.1740,2736
16.1760,1728
16.1780,3520
16.1800,3024
16.1820,1744
16.1840,672
16.1860,1600
16.1880,2192
16.1900,6881
16.1920,1744
16.1940,3392
16.1960,1280
16.1980,6817
16.2000,3104
16.2020,1488
16.2040,688
16.2060,1024
16.2080,784
16.2100,6017
16.2120,784
16.2140,1008
16.2160,10130
16.2180,4401
16.2200,7969
16.2220,5409
16.2240,3888
16.2260,1616
16.2280,1232
16.2300,1216
16.2320,6193
16.2340,1232
16.2360,2496
16.2380,2000
16.2400,944
16.2420,976
16.2440,6513
16.2460,1376
16.2480,1056
16.2500,1584
16.2520,10434
16.2540,2656
16.2560,720
16.2580,1168
16.2600,1024
16.2620,1120
16.2640,816
16.2660,1712
16.2680,10338
16.2700,9298
16.2720,2912
16.2740,8177
16.2760,5681
16.2780,832
16.2800,1680
16.2820,5025
16.2840,800
16.2860,928
16.2880,8514
16.2900,7457
16.2920,3296
16.2940,2928
16.2960,1488
16.2980,8290
16.3000,3584
16.3020,1840
16.3040,7569
16.3060,9122
16.3080,3056
16.3100,6513
16.3120,5281
16.3140,848
16.3160,9810
16.3180,5633
16.3200,896
16.3220,2768
16.3240,2320
16.3260,3872
16.3280,1280
16.3300,1168
16.3320,1232
16.3340,880
16.3360,1984
16.3380,1152
16.3400,10002
16.3420,1824
16.3440,2000
16.3460,15043
16.3480,12499
16.3500,10338
16.3520,4369
16.3540,4689
16.3560,1488
16.3580,3360
16.3600,7089
16.3620,10514
16.3640,13059
16.3660,13459
16.3680,6545
16.3700,1440
16.3720,1408
16.3740,960
16.3760,5937
16.3780,14611
16.3800,3392
16.3820,2576
16.3840,6193
16.3860,1632
16.3880,5409
16.3900,3552
16.3920,3376
16.3940,11602
16.3960,2080
16.3980,6625
16.4000,2128
16.4020,13523
16.4040,14787
16.4060,11826
16.4080,992
16.4100,3664
16.4120,2096
16.4140,5649
16.4160,19652
16.4180,3936
16.4200,8610
16.4220,1760
16.4240,2352
16.4260,656
16.4280,2176
16.4300,4193
16.4320,7585
16.4340,3936
16.4360,1072
16.4380,1248
16.4400,7009
16.4420,3008
16.4440,2992
16.4460,9394
16.4480,15235
16.4500,960
16.4520,9554
16.4540,3376
16.4560,5649
16.4580,9186
16.4600,11730
16.4620,6353
16.4640,1104
16.4660,13491
16.4680,992
16.4700,3408
16.4720,2400
16.4740,1344
16.4760,1616
16.4780,13507
16.4800,1664
16.4820,9682
16.4840,1632
16.4860,2304
16.4880,3152
16.4900,1200
16.4920,5937
16.4940,8001
16.4960,1216
16.4980,6145
16.5000,18564
16.5020,11266
16.5040,5905
16.5060,1056
16.5080,2704
16.5100,4449
16.5120,1568
16.5140,2704
16.5160,3760
16.5180,19732
16.5200,10722
16.5220,4161
16.5240,2144
16.5260,11154
16.5280,7473
16.5300,6737
16.5320,11378
16.5340,3616
16.5360,19236
16.5380,12323
16.5400,1152
16.5420,11746
16.5440,7201
16.5460,1584
16.5480,768
16.5500,3136
16.5520,5777
16.5540,3584
16.5560,8129
16.5580,1088
16.5600,3008
16.5620,2048
16.5640,4705
16.5660,18100
16.5680,1200
16.5700,992
16.5720,16275
16.5740,848
16.5760,1488
16.5780,3584
16.5800,2448
16.5820,10178
16.5840,848
16.5860,11218
16.5880,2176
16.5900,2784
16.5920,5201
16.5940,23781
16.5960,16339
16.5980,4161
16.6000,2016
16.6020,13603
16.6040,2352
16.6060,832
16.6080,5201
16.6100,15203
16.6120,2512
16.6140,7265
16.6160,1456
16.6180,1568
16.6200,1584
16.6220,18004
16.6240,12787
16.6260,8033
16.6280,976
16.6300,2032
16.6320,13267
16.6340,13411
16.6360,7329
16.6380,2944
16.6400,5185
16.6420,15411
16.6440,14227
16.6460,3408
16.6480,4161
16.6500,2064
16.6520,12403
16.6540,1200
16.6560,1200
16.6580,1856
16.6600,1344
16.6620,944
16.6640,5617
16.6660,4945
16.6680,4545
16.6700,1424
16.6720,2320
16.6740,16083
16.6760,15795
16.6780,2880
16.6800,4273
16.6820,9346
16.6840,2144
16.6860,896
16.6880,5521
16.6900,18212
16.6920,864
16.6940,16788
16.6960,928
16.6980,800
16.7000,8161
16.7020,2720
16.7040,4257
16.7060,3104
16.7080,4353
16.7100,10978
16.7120,4945
16.7140,22309
16.7160,6081
16.7180,2224
16.7200,1696
16.7220,3360
16.7240,4961
16.7260,11986
16.7280,2736
16.7300,15795
16.7320,4529
16.7340,7617
16.7360,7041
16.7380,2288
16.7400,9362
16.7420,24565
16.7440,25238
16.7460,5281
16.7480,15555
16.7500,4369
16.7520,2320
16.7540,1424
16.7560,9730
16.7580,7201
16.7600,1472
16.7620,5633
16.7640,864
16.7660,11810
16.7680,10066
16.7700,8177
16.7720,16404
16.7740,8161
16.7760,21637
16.7780,9602
16.7800,9538
16.7820,14035
16.7840,4000
16.7860,6401
16.7880,4241
16.7900,6465
16.7920,10626
16.7940,4881
16.7960,1568
16.7980,11362
16.8000,864
16.8020,10914
16.8040,6577
16.8060,7585
16.8080,1760
16.8100,5585
16.8120,2080
16.8140,32183
16.8160,18020
16.8180,8514
16.8200,1984
16.8220,13491
16.8240,19652
16.8260,3008
16.8280,4865
16.8300,6289
16.8320,2176
16.8340,848
16.8360,2272
16.8380,18708
16.8400,32776
16.8420,5553
16.8440,656
16.8460,9394
16.8480,7729
16.8500,5297
16.8520,19876
16.8540,5697
16.8560,16660
16.8580,3168
16.8600,20485
16.8620,1968
16.8640,2208
16.8660,17860
16.8680,1728
16.8700,3360
16.8720,1792
16.8740,2208
16.8760,2192
16.8780,22149
16.8800,16035
16.8820,9778
16.8840,1584
16.8860,16836
16.8880,1680
16.8900,6721
16.8920,9426
16.8940,3024
16.8960,16980
16.8980,1248
16.9000,3680
16.9020,3584
16.9040,8161
16.9060,6225
16.9080,5249
16.9100,1760
16.9120,9522
16.9140,4961
16.9160,6753
16.9180,31271
16.9200,944
16.9220,1216
16.9240,2992
16.9260,2592
16.9280,11058
16.9300,23653
16.9320,5201
16.9340,736
16.9360,12242
16.9380,8642
16.9400,944
16.9420,8177
16.9440,18756
16.9460,7457
16.9480,7457
16.9500,2176
16.9520,1152
16.9540,7761
16.9560,25318
16.9580,4273
16.9600,9970
16.9620,2432
16.9640,2272
16.9660,9058
16.9680,1488
16.9700,17956
16.9720,1488
16.9740,22453
16.9760,3104
16.9780,17876
16.9800,3136
16.9820,4401
16.9840,6865
16.9860,2432
16.9880,480
16.9900,7361
16.9920,6369
16.9940,2496
16.9960,14179
16.9980,16307
17.0000,5105
17.0020,3104
17.0040,9314
17.0060,1232
17.0080,4449
17.0100,6529
17.0120,4641
17.0140,704
17.0160,4657
17.0180,8194
17.0200,3856
17.0220,1616
17.0240,5009
17.0260,12258
17.0280,21413
17.0300,8418
17.0320,7841
17.0340,6161
17.0360,26662
17.0380,1824
17.0400,5937
17.0420,3200
17.0440,3200
17.0460,6145
17.0480,25894
17.0500,15619
17.0520,3024
17.0540,15187
17.0560,2512
17.0580,1408
17.0600,17636
17.0620,30375
17.0640,6945
17.0660,6129
17.0680,816
17.0700,15091
17.0720,20116
17.0740,7473
17.0760,16179
17.0780,4593
17.0800,6017
17.0820,2768
17.0840,864
17.0860,10098
17.0880,4225
17.0900,6273
17.0920,3920
17.0940,1072
17.0960,928
17.0980,7377
17.1000,720
17.1020,2768
17.1040,13155
17.1060,1568
17.1080,1088
17.1100,13075
17.1120,3104
17.1140,3776
17.1160,16131
17.1180,2336
17.1200,4897
17.1220,4833
17.1240,1312
17.1260,44266
17.1280,5313
17.1300,2528
17.1320,23205
17.1340,9410
17.1360,14547
17.1380,5137
17.1400,2624
17.1420,10066
17.1440,1184
17.1460,5185
17.1480,2592
17.1500,1664
17.1520,4145
17.1540,1344
17.1560,5313
17.1580,29319
17.1600,17540
17.1620,11298
17.1640,2128
17.1660,20805
17.1680,1600
17.1700,2160
17.1720,2336
17.1740,16291
17.1760,7169
17.1780,4048
17.1800,4769
17.1820,1168
17.1840,10162
17.1860,14995
17.1880,16115
17.1900,2832
17.1920,34872
17.1940,2768
17.1960,14995
17.1980,4705
17.2000,3584
17.2020,1952
17.2040,7377
17.2060,1360
17.2080,1632
17.2100,7521
17.2120,7329
17.2140,7025
17.2160,21941
17.2180,15331
17.2200,4129
17.2220,14739
17.2240,15619
17.2260,1424
17.2280,15091
17.2300,3280
17.2320,17332
17.2340,8290
17.2360,1984
17.2380,2256
17.2400,15587
17.2420,13107
17.2440,6993
17.2460,12034
17.2480,9426
17.2500,1616
17.2520,2832
17.2540,14659
17.2560,11106
17.2580,15363
17.2600,3104
17.2620,1408
17.2640,7201
17.2660,2688
17.2680,22693
17.2700,1104
17.2720,1056
17.2740,16868
17.2760,3904
17.2780,18404
17.2800,12387
17.2820,4048
17.2840,16436
17.2860,16836
17.2880,3520
17.2900,1248
17.2920,10178
17.2940,6065
17.2960,8177
17.2980,2384
17.3000,13155
17.3020,7601
17.3040,23749
17.3060,5649
17.3080,9778
17.3100,1120
17.3120,12931
17.3140,10546
17.3160,7905
17.3180,3632
17.3200,12755
17.3220,9858
17.3240,18436
17.3260,3328
17.3280,832
17.3300,3232
17.3320,3408
17.3340,1424
17.3360,17588
17.3380,1232
17.3400,5553
17.3420,2704
17.3440,3392
17.3460,3488
17.3480,10962
17.3500,11698
17.3520,2256
17.3540,3872
17.3560,1504
17.3580,4657
17.3600,20693
17.3620,1216
17.3640,1792
17.3660,15379
17.3680,19892
17.3700,8834
17.3720,3040
17.3740,15363
17.3760,8354
17.3780,1184
17.3800,8594
17.3820,1040
17.3840,3984
17.3860,3632
17.3880,1936
17.3900,4225
17.3920,15667
17.3940,3360
17.3960,2496
17.3980,4145
17.4000,14627
17.4020,17908
17.4040,1424
17.4060,19124
17.4080,7569
17.4100,1200
17.4120,2736
17.4140,2432
17.4160,12947
17.4180,9154
17.4200,25750
17.4220,1376
17.4240,12307
17.4260,20565
17.4280,18308
17.4300,3936
17.4320,1936
17.4340,2720
17.4360,3264
17.4380,14115
17.4400,24934
17.4420,12995
17.4440,10082
17.4460,2160
17.4480,1088
17.4500,20949
17.4520,17748
17.4540,3232
17.4560,10370
17.4580,2224
17.4600,8546
17.4620,9986
17.4640,9122
17.4660,28967
17.4680,2752
17.4700,3536
17.4720,1824
17.4740,6449
17.4760,2256
17.4780,2592
17.4800,10050
17.4820,7313
17.4840,18484
17.4860,10210
17.4880,1152
17.4900,4849
17.4920,3856
17.4940,10194
17.4960,5633
17.4980,10498
17.5000,9874
17.5020,1520
17.5040,2048
17.5060,5313
17.5080,12771
17.5100,15299
17.5120,7985
17.5140,13283
17.5160,3072
17.5180,6641
17.5200,2704
17.5220,3376
17.5240,25174
17.5260,4737
17.5280,12771
17.5300,1376
17.5320,12947
17.5340,12675
17.5360,7377
17.5380,37785
17.5400,4289
17.5420,3008
17.5440,25334
17.5460,1424
17.5480,1648
17.5500,12387
17.5520,10418
17.5540,3600
17.5560,6257
17.5580,3232
17.5600,7153
17.5620,9874
17.5640,12291
17.5660,1104
17.5680,1120
17.5700,1296
17.5720,5937
17.5740,1424
17.5760,3504
17.5780,688
17.5800,4080
17.5820,2112
17.5840,14003
17.5860,2544
17.5880,1376
17.5900,992
17.5920,1584
17.5940,6737
17.5960,1184
17.5980,976
17.6000,1664
17.6020,3520
17.6040,6673
17.6060,1216
17.6080,992
17.6100,15331
17.6120,10178
17.6140,1936
17.6160,2064
17.6180,2608
17.6200,1248
17.6220,9778
17.6240,10418
17.6260,13107
17.6280,6017
17.6300,10050
17.6320,1440
17.6340,1408
17.6360,704
17.6380,12114
17.6400,8642
17.6420,10770
17.6440,24037
17.6460,15939
17.6480,10306
17.6500,5761
17.6520,8161
17.6540,4737
17.6560,4913
17.6580,1744
17.6600,800
17.6620,1536
17.6640,1856
17.6660,1024
17.6680,17972
17.6700,4737
17.6720,8065
17.6740,8482
17.6760,10754
17.6780,5969
17.6800,3632
17.6820,6081
17.6840,4080
17.6860,13891
17.6880,35624
17.6900,4753
17.6920,21765
17.6940,1424
17.6960,6817
17.6980,8706
17.7000,9410
17.7020,12723
17.7040,1152
17.7060,3600
17.7080,10690
17.7100,7857
17.7120,6801
17.7140,4849
17.7160,2752
17.7180,5121
17.7200,9714
17.7220,6641
17.7240,2592
17.7260,9474
17.7280,10370
17.7300,1152
17.7320,20885
17.7340,1904
17.7360,1200
17.7380,3872
17.7400,3776
17.7420,2432
17.7440,14467
17.7460,5217
17.7480,5681
17.7500,24565
17.7520,1312
17.7540,9442
17.7560,1888
17.7580,8834
17.7600,1232
17.7620,2960
17.7640,1280
17.7660,1024
17.7680,19892
17.7700,7617
17.7720,1568
17.7740,24133
17.7760,2624
17.7780,6961
17.7800,4129
17.7820,12050
17.7840,1136
17.7860,8017
17.7880,3136
17.7900,4881
17.7920,13363
17.7940,1072
17.7960,1728
17.7980,2384
17.8000,21845
17.8020,11058
17.8040,12643
17.8060,27942
17.8080,1808
17.8100,752
17.8120,25766
17.8140,1104
17.8160,1664
17.8180,1936
17.8200,8466
17.8220,4769
17.8240,13011
17.8260,1088
17.8280,10834
17.8300,832
17.8320,1424
17.8340,11954
17.8360,800
17.8380,8177
17.8400,1424
17.8420,1984
17.8440,4273
17.8460,14627
17.8480,14659
17.8500,13587
17.8520,2560
17.8540,6657
17.8560,6241
17.8580,5793
17.8600,4529
17.8620,10914
17.8640,6945
17.8660,5729
17.8680,3024
17.8700,5729
17.8720,16067
17.8740,16996
17.8760,35816
17.8780,44666
17.8800,8802
17.8820,18068
17.8840,5665
17.8860,912
17.8880,5297
17.8900,5169
17.8920,16820
17.8940,7697
17.8960,2704
17.8980,6225
17.9000,5665
17.9020,5393
17.9040,10338
17.9060,26758
17.9080,1184
17.9100,4945
17.9120,7057
17.9140,1632
17.9160,13107
17.9180,4145
17.9200,6545
17.9220,8962
17.9240,6033
17.9260,6433
17.9280,8258
17.9300,5265
17.9320,1504
17.9340,3472
17.9360,8242
17.9380,992
17.9400,2576
17.9420,1536
17.9440,7249
17.9460,6705
17.9480,6865
17.9500,5729
17.9520,11490
17.9540,2272
17.9560,2832
17.9580,7233
17.9600,10914
17.9620,11122
17.9640,6929
17.9660,1104
17.9680,3216
17.9700,3408
17.9720,1600
17.9740,912
17.9760,1072
17.9780,2112
17.9800,7009
17.9820,6193
17.9840,3568
17.9860,928
17.9880,3216
17.9900,912
17.9920,4273
17.9940,8161
17.9960,7121
17.9980,1184
18.0000,32039
18.0020,32359
18.0040,5025
18.0060,1808
18.0080,22357
18.0100,8113
18.0120,10082
18.0140,13747
18.0160,12130
18.0180,1344
18.0200,14467
18.0220,10946
18.0240,2544
18.0260,736
18.0280,7729
18.0300,6753
18.0320,14675
18.0340,2576
18.0360,2688
18.0380,20324
18.0400,12547
18.0420,2144
18.0440,19268
18.0460,20148
18.0480,1216
18.0500,976
18.0520,6401
18.0540,6225
18.0560,4865
18.0580,1616
18.0600,5521
18.0620,5201
18.0640,8530
18.0660,9106
18.0680,14947
18.0700,816
18.0720,1360
18.0740,5537
18.0760,9042
18.0780,25142
18.0800,14387
18.0820,15667
18.0840,19492
18.0860,15171
18.0880,4048
18.0900,2768
18.0920,1248
18.0940,7681
18.0960,12451
18.0980,576
18.1000,1472
18.1020,25030
18.1040,2192
18.1060,10290
18.1080,37833
18.1100,12339
18.1120,4145
18.1140,30583
18.1160,6737
18.1180,24133
18.1200,1280
18.1220,928
18.1240,14163
18.1260,2464
18.1280,11986
18.1300,1696
18.1320,1120
18.1340,4753
18.1360,20228
18.1380,16852
18.1400,4961
18.1420,1904
18.1440,2016
18.1460,3488
18.1480,4177
18.1500,10946
18.1520,34920
18.1540,1408
18.1560,17876
18.1580,20485
18.1600,9970
18.1620,6785
18.1640,16195
18.1660,3584
18.1680,1504
18.1700,29335
18.1720,3472
18.1740,2176
18.1760,1872
18.1780,5425
18.1800,1712
18.1820,1536
18.1840,10322
18.1860,832
18.1880,17572
18.1900,2256
18.1920,4000
18.1940,7105
18.1960,3760
18.1980,6705
18.2000,1120
18.2020,3216
18.2040,19108
18.2060,18388
18.2080,8177
18.2100,5409
18.2120,3040
18.2140,8177
18.2160,22837
18.2180,22789
18.2200,7361
18.2220,1360
18.2240,976
18.2260,12323
18.2280,3120
18.2300,7729
18.2320,12066
18.2340,13011
18.2360,15619
18.2380,9250
18.2400,1632
18.2420,5345
18.2440,1280
18.2460,5761
18.2480,1776
18.2500,6849
18.2520,1808
18.2540,8770
18.2560,14851
18.2580,2944
18.2600,2240
18.2620,8914
18.2640,15507
18.2660,5329
18.2680,4657
18.2700,2560
18.2720,7505
18.2740,1024
18.2760,6033
18.2780,2720
18.2800,1648
18.2820,15459
18.2840,8177
18.2860,10402
18.2880,10258
18.2900,1152
18.2920,3648
18.2940,2880
18.2960,17572
18.2980,5073
18.3000,11586
18.3020,2352
18.3040,7633
18.3060,1504
18.3080,10898
18.3100,7761
18.3120,4273
18.3140,1952
18.3160,1536
18.3180,5825
18.3200,2048
18.3220,4817
18.3240,2464
18.3260,1248
18.3280,5409
18.3300,8482
18.3320,10562
18.3340,2736
18.3360,2384
18.3380,22453
18.3400,6657
18.3420,15027
18.3440,10818
18.3460,15971
18.3480,10882
18.3500,1856
18.3520,10930
18.3540,9762
18.3560,736
18.3580,4048
18.3600,1424
18.3620,1344
18.3640,1504
18.3660,2656
18.3680,1552
18.3700,8177
18.3720,12050
18.3740,6209
18.3760,1104
18.3780,800
18.3800,2880
18.3820,14435
18.3840,1280
18.3860,2976
18.3880,14131
18.3900,11858
18.3920,976
18.3940,1712
18.3960,5377
18.3980,1408
18.4000,4113
18.4020,1616
18.4040,4064
18.4060,9154
18.4080,1472
18.4100,9218
18.4120,960
18.4140,6033
18.4160,10034
18.4180,9426
18.4200,1376
18.4220,4097
18.4240,1312
18.4260,1376
18.4280,864
18.4300,4945
18.4320,3328
18.4340,1456
18.4360,8177
18.4380,6881
18.4400,1056
18.4420,15795
18.4440,2864
18.4460,12755
18.4480,1024
18.4500,12130
18.4520,14147
18.4540,10706
18.4560,960
18.4580,14755
18.4600,2144
18.4620,8610
18.4640,8113
18.4660,13331
18.4680,15107
18.4700,14867
18.4720,9618
18.4740,1232
18.4760,2912
18.4780,2288
18.4800,1184
18.4820,4577
18.4840,26662
18.4860,12931
18.4880,4369
18.4900,3216
18.4920,3072
18.4940,2240
18.4960,6433
18.4980,1584
18.5000,4113
18.5020,10018
18.5040,3872
18.5060,2688
18.5080,992
18.5100,2176
18.5120,5953
18.5140,13267
18.5160,9010
18.5180,16035
18.5200,16468
18.5220,7873
18.5240,5457
18.5260,16323
18.5280,896
18.5300,2832
18.5320,13283
18.5340,5553
18.5360,6865
18.5380,21253
18.5400,1536
18.5420,15283
18.5440,24197
18.5460,15139
18.5480,8306
18.5500,3296
18.5520,2080
18.5540,2816
18.5560,18388
18.5580,1088
18.5600,928
18.5620,17108
18.5640,1520
18.5660,5425
18.5680,10514
18.5700,28887
18.5720,1664
18.5740,1408
18.5760,1536
18.5780,10146
18.5800,20020
18.5820,1232
18.5840,1584
18.5860,6833
18.5880,13203
18.5900,1184
18.5920,1872
18.5940,4401
18.5960,1488
18.5980,1424
18.6000,4881
18.6020,5537
18.6040,6977
18.6060,7569
18.6080,3552
18.6100,7441
18.6120,10418
18.6140,3680
18.6160,21445
18.6180,10930
18.6200,1952
18.6220,3424
18.6240,7745
18.6260,11170
18.6280,2080
18.6300,1296
18.6320,26726
18.6340,2304
18.6360,11890
18.6380,4048
18.6400,19140
18.6420,48811
18.6440,3568
18.6460,1840
18.6480,7633
18.6500,6673
18.6520,10066
18.6540,13779
18.6560,4817
18.6580,10914
18.6600,1760
18.6620,13139
18.6640,8802
18.6660,2624
18.6680,8161
18.6700,18868
18.6720,12226
18.6740,9938
18.6760,1328
18.6780,18404
18.6800,6545
18.6820,17364
18.6840,33608
18.6860,12371
18.6880,8930
18.6900,5633
18.6920,17364
18.6940,1200
18.6960,8594
18.6980,992
18.7000,1728
18.7020,4048
18.7040,1712
18.7060,10130
18.7080,7521
18.7100,1104
18.7120,6321
18.7140,1040
18.7160,4193
18.7180,17444
18.7200,11170
18.7220,4545
18.7240,1440
18.7260,1472
18.7280,15379
18.7300,16227
18.7320,12995
18.7340,2336
18.7360,784
18.7380,7505
18.7400,2512
18.7420,800
18.7440,800
18.7460,8177
18.7480,1360
18.7500,2512
18.7520,5057
18.7540,6593
18.7560,14003
18.7580,8786
18.7600,5025
18.7620,11330
18.7640,2496
18.7660,1056
18.7680,816
18.7700,10306
18.7720,9282
18.7740,6017
18.7760,17044
18.7780,13443
18.7800,1536
18.7820,4113
18.7840,880
18.7860,3152
18.7880,1088
18.7900,1568
18.7920,6817
18.7940,9618
18.7960,976
18.7980,1488
18.8000,2208
18.8020,704
18.8040,2256
18.8060,7729
18.8080,9794
18.8100,19396
18.8120,2304
18.8140,20036
18.8160,1664
18.8180,10978
18.8200,1552
18.8220,6961
18.8240,18260
18.8260,22245
18.8280,1888
18.8300,3616
18.8320,11410
18.8340,14771
18.8360,11522
18.8380,7393
18.8400,3232
18.8420,2656
18.8440,1408
18.8460,2688
18.8480,2144
18.8500,1248
18.8520,3392
18.8540,9554
18.8560,1408
18.8580,3856
18.8600,3232
18.8620,6433
18.8640,4129
18.8660,2512
18.8680,2048
18.8700,992
18.8720,1056
18.8740,3216
18.8760,3872
18.8780,7009
18.8800,928
18.8820,2848
18.8840,7409
18.8860,2560
18.8880,8770
18.8900,1792
18.8920,752
18.8940,2896
18.8960,11202
18.8980,16355
18.9000,6065
18.9020,5825
18.9040,28150
18.9060,23077
18.9080,1120
18.9100,15123
18.9120,6673
18.9140,10210
18.9160,10690
18.9180,7553
18.9200,928
18.9220,7745
18.9240,816
18.9260,14099
18.9280,1056
18.9300,1440
18.9320,6849
18.9340,13011
18.9360,928
18.9380,2064
18.9400,10562
18.9420,736
18.9440,6049
18.9460,5089
18.9480,1504
18.9500,1072
18.9520,768
18.9540,1808
18.9560,4881
18.9580,16564
18.9600,14627
18.9620,5969
18.9640,15043
18.9660,9410
18.9680,2272
18.9700,10834
18.9720,11794
18.9740,10178
18.9760,13891
18.9780,6737
18.9800,26630
18.9820,35272
18.9840,2528
18.9860,912
18.9880,2000
18.9900,17316
18.9920,3152
18.9940,11810
18.9960,11298
18.9980,3600
19.0000,8177
19.0020,8177
19.0040,6481
19.0060,4497
19.0080,736
19.0100,5297
19.0120,9906
19.0140,3648
19.0160,2192
19.0180,3728
19.0200,7697
19.0220,21525
19.0240,4785
19.0260,928
19.0280,1840
19.0300,10754
19.0320,1376
19.0340,4513
19.0360,25030
19.0380,17844
19.0400,2000
19.0420,24565
19.0440,23077
19.0460,4881
19.0480,18500
19.0500,1296
19.0520,5729
19.0540,22069
19.0560,960
19.0580,9954
19.0600,1200
19.0620,29463
19.0640,8145
19.0660,1344
19.0680,7105
19.0700,944
19.0720,11042
19.0740,3168
19.0760,3328
19.0780,15491
19.0800,6657
19.0820,1600
19.0840,13267
19.0860,4897
19.0880,896
19.0900,5793
19.0920,19220
19.0940,13139
19.0960,9922
19.0980,4241
19.1000,3264
19.1020,12595
19.1040,6497
19.1060,1600
19.1080,7969
19.1100,3280
19.1120,4193
19.1140,3712
19.1160,3536
19.1180,1184
19.1200,1056
19.1220,5025
19.1240,5921
19.1260,10178
19.1280,2720
19.1300,4913
19.1320,33672
19.1340,3408
19.1360,1232
19.1380,1648
19.1400,1088
19.1420,2016
19.1440,960
19.1460,3664
19.1480,30727
19.1500,4113
19.1520,12995
19.1540,10082
19.1560,3344
19.1580,10754
19.1600,7089
19.1620,864
19.1640,960
19.1660,13379
19.1680,16852
19.1700,10642
19.1720,8129
19.1740,6417
19.1760,8594
19.1780,11298
19.1800,2160
19.1820,3024
19.1840,2704
19.1860,8466
19.1880,14211
19.1900,14627
19.1920,5329
19.1940,13907
19.1960,7473
19.1980,13411
19.2000,1632
19.2020,3328
19.2040,8177
19.2060,944
19.2080,8978
19.2100,1616
19.2120,10770
19.2140,1792
19.2160,1552
19.2180,12851
19.2200,6033
19.2220,1600
19.2240,6241
19.2260,6561
19.2280,25030
19.2300,3984
19.2320,10402
19.2340,8354
19.2360,864
19.2380,10178
19.2400,2064
19.2420,8514
19.2440,976
19.2460,6241
19.2480,11442
19.2500,5889
19.2520,3856
19.2540,10898
19.2560,960
19.2580,1760
19.2600,3904
19.2620,2464
19.2640,1792
19.2660,12931
19.2680,1440
19.2700,7649
19.2720,1360
19.2740,4113
19.2760,1760
19.2780,1920
19.2800,3152
19.2820,6817
19.2840,2688
19.2860,1616
19.2880,1632
19.2900,8578
19.2920,7809
19.2940,9874
19.2960,9810
19.2980,14643
19.3000,2992
19.3020,7089
19.3040,19620
19.3060,3664
19.3080,13411
19.3100,10130
19.3120,864
19.3140,19300
19.3160,928
19.3180,1584
19.3200,13715
19.3220,3536
19.3240,9538
19.3260,1152
19.3280,6017
19.3300,15395
19.3320,9858
19.3340,8290
19.3360,1536
19.3380,3376
19.3400,2016
19.3420,7649
19.3440,2384
19.3460,11346
19.3480,25686
19.3500,27958
19.3520,3616
19.3540,11202
19.3560,4625
19.3580,14979
19.3600,1440
19.3620,7249
19.3640,12675
19.3660,2080
19.3680,1552
19.3700,15891
19.3720,15459
19.3740,1296
19.3760,2656
19.3780,6977
19.3800,4497
19.3820,3472
19.3840,3088
19.3860,4193
19.3880,1280
19.3900,800
19.3920,2096
19.3940,1216
19.3960,10178
19.3980,2720
19.4000,2992
19.4020,7377
19.4040,864
19.4060,848
19.4080,3168
19.4100,992
19.4120,2336
19.4140,1984
19.4160,6721
19.4180,17076
19.4200,1632
19.4220,1328
19.4240,19988
19.4260,2048
19.4280,2880
19.4300,10210
19.4320,1552
19.4340,4881
19.4360,1616
19.4380,14947
19.4400,9618
19.4420,992
19.4440,6241
19.4460,9458
19.4480,4881
19.4500,7457
19.4520,2640
19.4540,1200
19.4560,12995
19.4580,9506
19.4600,1344
19.4620,9042
19.4640,19188
19.4660,15299
19.4680,21557
19.4700,24565
19.4720,1216
19.4740,5281
19.4760,2368
19.4780,1488
19.4800,832
19.4820,768
19.4840,816
19.4860,1072
19.4880,2688
19.4900,2000
19.4920,1120
19.4940,5857
19.4960,10178
19.4980,4225
19.5000,7201
19.5020,1936
19.5040,2352
19.5060,7617
19.5080,1456
19.5100,17316
19.5120,18516
19.5140,18452
19.5160,5457
19.5180,10066
19.5200,16339
19.5220,18532
19.5240,19172
19.5260,960
19.5280,1680
19.5300,704
19.5320,1824
19.5340,3616
19.5360,5345
19.5380,1072
19.5400,1392
19.5420,1328
19.5440,976
19.5460,1408
19.5480,8882
19.5500,4817
19.5520,4097
19.5540,2512
19.5560,20420
19.5580,5825
19.5600,4833
19.5620,40249
19.5640,2416
19.5660,1104
19.5680,7777
19.5700,4401
19.5720,1136
19.5740,5409
19.5760,17764
19.5780,2080
19.5800,1408
19.5820,9394
19.5840,10306
19.5860,2880
19.5880,592
19.5900,3104
19.5920,1472
19.5940,11618
19.5960,17428
19.5980,2496
19.6000,2768
19.6020,11810
19.6040,9522
19.6060,1072
19.6080,24149
19.6100,3664
19.6120,2016
19.6140,18212
19.6160,6337
19.6180,7761
19.6200,864
19.6220,4865
19.6240,19668
19.6260,9458
19.6280,8818
19.6300,6673
19.6320,1920
19.6340,2288
19.6360,6641
19.6380,1600
19.6400,18004
19.6420,3504
19.6440,20693
19.6460,18580
19.6480,1440
19.6500,2960
19.6520,12563
19.6540,8386
19.6560,10034
19.6580,4433
19.6600,1232
19.6620,7457
