Tempo(s),EMG_Value
0.0000,1168
0.0020,944
0.0040,608
0.0060,0
0.0080,1168
0.0100,1120
0.0120,0
0.0140,720
0.0160,256
0.0180,32
0.0200,432
0.0220,288
0.0240,1424
0.0260,336
0.0280,592
0.0300,672
0.0320,352
0.0340,128
0.0360,352
0.0380,464
0.0400,512
0.0420,768
0.0440,720
0.0460,304
0.0480,448
0.0500,320
0.0520,0
0.0540,0
0.0560,1040
0.0580,1424
0.0600,416
0.0620,448
0.0640,656
0.0660,160
0.0680,816
0.0700,720
0.0720,784
0.0740,480
0.0760,1248
0.0780,1088
0.0800,96
0.0820,192
0.0840,416
0.0860,576
0.0880,288
0.0900,272
0.0920,272
0.0940,400
0.0960,272
0.0980,224
0.1000,256
0.1020,320
0.1040,608
0.1060,544
0.1080,336
0.1100,352
0.1120,1184
0.1140,960
0.1160,400
0.1180,240
0.1200,528
0.1220,0
0.1240,384
0.1260,512
0.1280,656
0.1300,352
0.1320,496
0.1340,352
0.1360,400
0.1380,480
0.1400,1536
0.1420,1680
0.1440,528
0.1460,1664
0.1480,1664
0.1500,144
0.1520,64
0.1540,352
0.1560,288
0.1580,448
0.1600,48
0.1620,224
0.1640,816
0.1660,448
0.1680,0
0.1700,0
0.1720,0
0.1740,384
0.1760,0
0.1780,1056
0.1800,336
0.1820,0
0.1840,592
0.1860,528
0.1880,1376
0.1900,1648
0.1920,1456
0.1940,1872
0.1960,1136
0.1980,816
0.2000,0
0.2020,384
0.2040,1184
0.2060,1360
0.2080,128
0.2100,992
0.2120,432
0.2140,224
0.2160,288
0.2180,32
0.2200,656
0.2220,928
0.2240,304
0.2260,1712
0.2280,96
0.2300,64
0.2320,144
0.2340,0
0.2360,304
0.2380,224
0.2400,112
0.2420,208
0.2440,1232
0.2460,1040
0.2480,160
0.2500,352
0.2520,464
0.2540,544
0.2560,80
0.2580,512
0.2600,3072
0.2620,560
0.2640,272
0.2660,128
0.2680,208
0.2700,352
0.2720,1584
0.2740,64
0.2760,304
0.2780,1152
0.2800,1488
0.2820,240
0.2840,336
0.2860,224
0.2880,512
0.2900,560
0.2920,1312
0.2940,672
0.2960,320
0.2980,80
0.3000,0
0.3020,320
0.3040,1472
0.3060,2608
0.3080,1968
0.3100,272
0.3120,1280
0.3140,880
0.3160,128
0.3180,32
0.3200,144
0.3220,256
0.3240,0
0.3260,336
0.3280,0
0.3300,976
0.3320,80
0.3340,64
0.3360,0
0.3380,384
0.3400,224
0.3420,128
0.3440,1168
0.3460,656
0.3480,592
0.3500,448
0.3520,352
0.3540,256
0.3560,656
0.3580,272
0.3600,176
0.3620,16
0.3640,496
0.3660,352
0.3680,352
0.3700,256
0.3720,336
0.3740,688
0.3760,48
0.3780,1632
0.3800,400
0.3820,544
0.3840,608
0.3860,768
0.3880,448
0.3900,96
0.3920,832
0.3940,192
0.3960,1072
0.3980,592
0.4000,128
0.4020,160
0.4040,80
0.4060,288
0.4080,160
0.4100,992
0.4120,1488
0.4140,160
0.4160,80
0.4180,720
0.4200,0
0.4220,736
0.4240,976
0.4260,352
0.4280,128
0.4300,400
0.4320,560
0.4340,160
0.4360,16
0.4380,256
0.4400,656
0.4420,960
0.4440,512
0.4460,560
0.4480,96
0.4500,64
0.4520,512
0.4540,704
0.4560,528
0.4580,464
0.4600,1616
0.4620,960
0.4640,416
0.4660,1584
0.4680,432
0.4700,192
0.4720,336
0.4740,752
0.4760,288
0.4780,944
0.4800,1040
0.4820,320
0.4840,272
0.4860,256
0.4880,432
0.4900,448
0.4920,272
0.4940,416
0.4960,432
0.4980,720
0.5000,448
0.5020,352
0.5040,304
0.5060,944
0.5080,64
0.5100,1328
0.5120,320
0.5140,416
0.5160,384
0.5180,512
0.5200,1040
0.5220,352
0.5240,0
0.5260,1056
0.5280,208
0.5300,320
0.5320,256
0.5340,80
0.5360,0
0.5380,0
0.5400,528
0.5420,432
0.5440,320
0.5460,192
0.5480,1088
0.5500,64
0.5520,576
0.5540,80
0.5560,768
0.5580,464
0.5600,1152
0.5620,256
0.5640,0
0.5660,432
0.5680,512
0.5700,560
0.5720,688
0.5740,480
0.5760,352
0.5780,1184
0.5800,496
0.5820,528
0.5840,400
0.5860,448
0.5880,880
0.5900,640
0.5920,1488
0.5940,1504
0.5960,816
0.5980,352
0.6000,64
0.6020,336
0.6040,592
0.6060,864
0.6080,544
0.6100,432
0.6120,288
0.6140,160
0.6160,320
0.6180,912
0.6200,160
0.6220,0
0.6240,880
0.6260,592
0.6280,464
0.6300,800
0.6320,400
0.6340,656
0.6360,64
0.6380,688
0.6400,224
0.6420,1744
0.6440,1280
0.6460,1936
0.6480,432
0.6500,400
0.6520,288
0.6540,672
0.6560,720
0.6580,336
0.6600,1408
0.6620,240
0.6640,160
0.6660,1056
0.6680,768
0.6700,448
0.6720,256
0.6740,896
0.6760,480
0.6780,1136
0.6800,640
0.6820,208
0.6840,144
0.6860,288
0.6880,208
0.6900,832
0.6920,896
0.6940,688
0.6960,736
0.6980,0
0.7000,304
0.7020,432
0.7040,928
0.7060,304
0.7080,624
0.7100,912
0.7120,992
0.7140,128
0.7160,1952
0.7180,64
0.7200,448
0.7220,800
0.7240,1088
0.7260,432
0.7280,800
0.7300,592
0.7320,304
0.7340,144
0.7360,1440
0.7380,416
0.7400,544
0.7420,1200
0.7440,272
0.7460,480
0.7480,352
0.7500,176
0.7520,960
0.7540,272
0.7560,400
0.7580,352
0.7600,2400
0.7620,608
0.7640,1008
0.7660,512
0.7680,1088
0.7700,208
0.7720,400
0.7740,208
0.7760,288
0.7780,896
0.7800,912
0.7820,528
0.7840,320
0.7860,128
0.7880,304
0.7900,320
0.7920,144
0.7940,304
0.7960,768
0.7980,1584
0.8000,336
0.8020,512
0.8040,64
0.8060,480
0.8080,1088
0.8100,816
0.8120,544
0.8140,672
0.8160,256
0.8180,0
0.8200,688
0.8220,272
0.8240,128
0.8260,736
0.8280,256
0.8300,608
0.8320,80
0.8340,320
0.8360,992
0.8380,640
0.8400,304
0.8420,800
0.8440,368
0.8460,272
0.8480,544
0.8500,800
0.8520,544
0.8540,928
0.8560,688
0.8580,544
0.8600,1056
0.8620,512
0.8640,608
0.8660,576
0.8680,448
0.8700,240
0.8720,416
0.8740,48
0.8760,1664
0.8780,960
0.8800,704
0.8820,64
0.8840,384
0.8860,480
0.8880,384
0.8900,80
0.8920,288
0.8940,384
0.8960,1792
0.8980,1104
0.9000,160
0.9020,720
0.9040,80
0.9060,240
0.9080,288
0.9100,352
0.9120,848
0.9140,48
0.9160,832
0.9180,448
0.9200,176
0.9220,304
0.9240,528
0.9260,272
0.9280,1024
0.9300,576
0.9320,304
0.9340,912
0.9360,336
0.9380,160
0.9400,1152
0.9420,0
0.9440,1008
0.9460,768
0.9480,880
0.9500,160
0.9520,0
0.9540,144
0.9560,320
0.9580,496
0.9600,288
0.9620,208
0.9640,560
0.9660,384
0.9680,432
0.9700,272
0.9720,128
0.9740,320
0.9760,576
0.9780,304
0.9800,0
0.9820,672
0.9840,416
0.9860,640
0.9880,640
0.9900,720
0.9920,560
0.9940,576
0.9960,272
0.9980,560
1.0000,608
1.0020,608
1.0040,160
1.0060,976
1.0080,192
1.0100,192
1.0120,128
1.0140,704
1.0160,896
1.0180,320
1.0200,832
1.0220,480
1.0240,768
1.0260,592
1.0280,992
1.0300,784
1.0320,272
1.0340,272
1.0360,384
1.0380,208
1.0400,448
1.0420,304
1.0440,608
1.0460,400
1.0480,448
1.0500,80
1.0520,304
1.0540,784
1.0560,448
1.0580,464
1.0600,400
1.0620,96
1.0640,0
1.0660,480
1.0680,400
1.0700,416
1.0720,704
1.0740,688
1.0760,144
1.0780,928
1.0800,64
1.0820,160
1.0840,288
1.0860,416
1.0880,144
1.0900,272
1.0920,960
1.0940,352
1.0960,560
1.0980,96
1.1000,176
1.1020,304
1.1040,416
1.1060,528
1.1080,432
1.1100,480
1.1120,96
1.1140,96
1.1160,320
1.1180,688
1.1200,480
1.1220,464
1.1240,544
1.1260,544
1.1280,1040
1.1300,224
1.1320,688
1.1340,144
1.1360,160
1.1380,256
1.1400,1872
1.1420,464
1.1440,352
1.1460,1552
1.1480,32
1.1500,0
1.1520,640
1.1540,336
1.1560,1056
1.1580,256
1.1600,768
1.1620,1344
1.1640,400
1.1660,128
1.1680,64
1.1700,0
1.1720,48
1.1740,576
1.1760,288
1.1780,1024
1.1800,320
1.1820,1712
1.1840,176
1.1860,0
1.1880,304
1.1900,208
1.1920,304
1.1940,288
1.1960,1824
1.1980,0
1.2000,208
1.2020,256
1.2040,800
1.2060,384
1.2080,592
1.2100,1472
1.2120,240
1.2140,464
1.2160,208
1.2180,416
1.2200,16
1.2220,96
1.2240,1008
1.2260,416
1.2280,1056
1.2300,320
1.2320,304
1.2340,160
1.2360,0
1.2380,352
1.2400,496
1.2420,208
1.2440,304
1.2460,160
1.2480,544
1.2500,160
1.2520,0
1.2540,0
1.2560,2464
1.2580,352
1.2600,0
1.2620,464
1.2640,192
1.2660,336
1.2680,32
1.2700,288
1.2720,672
1.2740,576
1.2760,144
1.2780,96
1.2800,512
1.2820,384
1.2840,432
1.2860,256
1.2880,352
1.2900,432
1.2920,416
1.2940,464
1.2960,912
1.2980,0
1.3000,0
1.3020,272
1.3040,384
1.3060,336
1.3080,592
1.3100,608
1.3120,80
1.3140,144
1.3160,480
1.3180,512
1.3200,0
1.3220,208
1.3240,160
1.3260,1312
1.3280,160
1.3300,336
1.3320,0
1.3340,160
1.3360,320
1.3380,304
1.3400,1024
1.3420,320
1.3440,368
1.3460,0
1.3480,288
1.3500,416
1.3520,544
1.3540,288
1.3560,448
1.3580,608
1.3600,272
1.3620,704
1.3640,64
1.3660,320
1.3680,160
1.3700,832
1.3720,256
1.3740,576
1.3760,192
1.3780,416
1.3800,352
1.3820,80
1.3840,144
1.3860,256
1.3880,336
1.3900,448
1.3920,160
1.3940,416
1.3960,1216
1.3980,96
1.4000,224
1.4020,1728
1.4040,1680
1.4060,128
1.4080,384
1.4100,448
1.4120,320
1.4140,1296
1.4160,160
1.4180,304
1.4200,432
1.4220,592
1.4240,720
1.4260,720
1.4280,448
1.4300,512
1.4320,400
1.4340,656
1.4360,272
1.4380,208
1.4400,0
1.4420,384
1.4440,1296
1.4460,448
1.4480,160
1.4500,672
1.4520,240
1.4540,64
1.4560,784
1.4580,528
1.4600,288
1.4620,272
1.4640,400
1.4660,224
1.4680,352
1.4700,576
1.4720,784
1.4740,496
1.4760,1504
1.4780,224
1.4800,480
1.4820,288
1.4840,384
1.4860,80
1.4880,400
1.4900,384
1.4920,1232
1.4940,1152
1.4960,976
1.4980,640
1.5000,272
1.5020,160
1.5040,592
1.5060,272
1.5080,464
1.5100,1168
1.5120,544
1.5140,256
1.5160,560
1.5180,368
1.5200,496
1.5220,208
1.5240,480
1.5260,640
1.5280,544
1.5300,336
1.5320,256
1.5340,512
1.5360,432
1.5380,1104
1.5400,752
1.5420,144
1.5440,768
1.5460,544
1.5480,320
1.5500,80
1.5520,80
1.5540,48
1.5560,0
1.5580,384
1.5600,288
1.5620,176
1.5640,96
1.5660,1568
1.5680,208
1.5700,416
1.5720,848
1.5740,400
1.5760,96
1.5780,368
1.5800,0
1.5820,96
1.5840,336
1.5860,960
1.5880,1344
1.5900,272
1.5920,784
1.5940,176
1.5960,0
1.5980,144
1.6000,80
1.6020,816
1.6040,576
1.6060,176
1.6080,0
1.6100,608
1.6120,896
1.6140,512
1.6160,160
1.6180,400
1.6200,528
1.6220,288
1.6240,384
1.6260,80
1.6280,208
1.6300,432
1.6320,624
1.6340,128
1.6360,640
1.6380,0
1.6400,944
1.6420,304
1.6440,432
1.6460,304
1.6480,176
1.6500,432
1.6520,320
1.6540,288
1.6560,240
1.6580,256
1.6600,544
1.6620,512
1.6640,128
1.6660,2000
1.6680,0
1.6700,256
1.6720,336
1.6740,672
1.6760,128
1.6780,1040
1.6800,864
1.6820,432
1.6840,560
1.6860,192
1.6880,160
1.6900,384
1.6920,160
1.6940,416
1.6960,304
1.6980,160
1.7000,224
1.7020,304
1.7040,64
1.7060,32
1.7080,640
1.7100,1248
1.7120,992
1.7140,480
1.7160,160
1.7180,288
1.7200,416
1.7220,256
1.7240,800
1.7260,688
1.7280,416
1.7300,336
1.7320,640
1.7340,320
1.7360,224
1.7380,416
1.7400,64
1.7420,1040
1.7440,192
1.7460,352
1.7480,576
1.7500,608
1.7520,1600
1.7540,800
1.7560,928
1.7580,224
1.7600,272
1.7620,688
1.7640,256
1.7660,784
1.7680,320
1.7700,768
1.7720,816
1.7740,160
1.7760,544
1.7780,1936
1.7800,288
1.7820,288
1.7840,784
1.7860,256
1.7880,1248
1.7900,528
1.7920,224
1.7940,528
1.7960,304
1.7980,1072
1.8000,768
1.8020,1808
1.8040,464
1.8060,416
1.8080,448
1.8100,208
1.8120,1248
1.8140,320
1.8160,128
1.8180,16
1.8200,192
1.8220,480
1.8240,432
1.8260,576
1.8280,1072
1.8300,304
1.8320,384
1.8340,272
1.8360,224
1.8380,176
1.8400,288
1.8420,400
1.8440,0
1.8460,432
1.8480,336
1.8500,448
1.8520,256
1.8540,272
1.8560,272
1.8580,240
1.8600,256
1.8620,400
1.8640,656
1.8660,256
1.8680,1488
1.8700,432
1.8720,144
1.8740,608
1.8760,592
1.8780,400
1.8800,544
1.8820,480
1.8840,416
1.8860,464
1.8880,240
1.8900,176
1.8920,640
1.8940,144
1.8960,352
1.8980,64
1.9000,0
1.9020,1248
1.9040,144
1.9060,752
1.9080,0
1.9100,448
1.9120,112
1.9140,320
1.9160,480
1.9180,176
1.9200,432
1.9220,832
1.9240,0
1.9260,400
1.9280,304
1.9300,400
1.9320,432
1.9340,400
1.9360,176
1.9380,624
1.9400,432
1.9420,144
1.9440,784
1.9460,272
1.9480,736
1.9500,544
1.9520,336
1.9540,224
1.9560,128
1.9580,288
1.9600,320
1.9620,1216
1.9640,256
1.9660,64
1.9680,400
1.9700,448
1.9720,320
1.9740,624
1.9760,640
1.9780,80
1.9800,272
1.9820,1040
1.9840,816
1.9860,304
1.9880,48
1.9900,672
1.9920,256
1.9940,512
1.9960,336
1.9980,160
2.0000,560
2.0020,256
2.0040,416
2.0060,400
2.0080,288
2.0100,336
2.0120,304
2.0140,256
2.0160,288
2.0180,144
2.0200,144
2.0220,128
2.0240,240
2.0260,672
2.0280,272
2.0300,224
2.0320,0
2.0340,256
2.0360,272
2.0380,512
2.0400,992
2.0420,432
2.0440,1376
2.0460,336
2.0480,560
2.0500,896
2.0520,784
2.0540,304
2.0560,336
2.0580,400
2.0600,576
2.0620,1584
2.0640,96
2.0660,0
2.0680,96
2.0700,208
2.0720,592
2.0740,192
2.0760,448
2.0780,272
2.0800,288
2.0820,960
2.0840,352
2.0860,240
2.0880,256
2.0900,0
2.0920,192
2.0940,544
2.0960,288
2.0980,32
2.1000,400
2.1020,224
2.1040,384
2.1060,288
2.1080,896
2.1100,0
2.1120,176
2.1140,320
2.1160,400
2.1180,240
2.1200,160
2.1220,432
2.1240,400
2.1260,32
2.1280,96
2.1300,448
2.1320,512
2.1340,48
2.1360,32
2.1380,416
2.1400,352
2.1420,432
2.1440,32
2.1460,32
2.1480,0
2.1500,1872
2.1520,112
2.1540,512
2.1560,336
2.1580,80
2.1600,1072
2.1620,288
2.1640,48
2.1660,256
2.1680,720
2.1700,384
2.1720,320
2.1740,288
2.1760,560
2.1780,400
2.1800,80
2.1820,544
2.1840,512
2.1860,336
2.1880,336
2.1900,400
2.1920,176
2.1940,240
2.1960,352
2.1980,48
2.2000,288
2.2020,176
2.2040,192
2.2060,352
2.2080,64
2.2100,512
2.2120,160
2.2140,320
2.2160,224
2.2180,304
2.2200,208
2.2220,176
2.2240,320
2.2260,912
2.2280,416
2.2300,512
2.2320,288
2.2340,288
2.2360,512
2.2380,992
2.2400,944
2.2420,432
2.2440,384
2.2460,1072
2.2480,480
2.2500,688
2.2520,528
2.2540,272
2.2560,96
2.2580,96
2.2600,112
2.2620,32
2.2640,128
2.2660,416
2.2680,64
2.2700,1664
2.2720,1152
2.2740,448
2.2760,416
2.2780,304
2.2800,784
2.2820,1360
2.2840,960
2.2860,384
2.2880,144
2.2900,336
2.2920,576
2.2940,448
2.2960,592
2.2980,944
2.3000,544
2.3020,400
2.3040,592
2.3060,96
2.3080,832
2.3100,464
2.3120,416
2.3140,272
2.3160,160
2.3180,352
2.3200,304
2.3220,576
2.3240,320
2.3260,384
2.3280,688
2.3300,656
2.3320,608
2.3340,1312
2.3360,416
2.3380,128
2.3400,256
2.3420,144
2.3440,48
2.3460,224
2.3480,400
2.3500,512
2.3520,144
2.3540,416
2.3560,912
2.3580,576
2.3600,1360
2.3620,288
2.3640,336
2.3660,592
2.3680,144
2.3700,144
2.3720,848
2.3740,448
2.3760,304
2.3780,304
2.3800,704
2.3820,32
2.3840,160
2.3860,32
2.3880,256
2.3900,13187
2.3920,1136
2.3940,5585
2.3960,496
2.3980,176
2.4000,32
2.4020,2176
2.4040,2912
2.4060,432
2.4080,528
2.4100,784
2.4120,1120
2.4140,400
2.4160,272
2.4180,96
2.4200,32
2.4220,400
2.4240,1696
2.4260,432
2.4280,832
2.4300,560
2.4320,624
2.4340,1584
2.4360,0
2.4380,528
2.4400,176
2.4420,560
2.4440,768
2.4460,144
2.4480,512
2.4500,304
2.4520,448
2.4540,512
2.4560,1040
2.4580,288
2.4600,320
2.4620,992
2.4640,336
2.4660,800
2.4680,32
2.4700,416
2.4720,576
2.4740,528
2.4760,336
2.4780,96
2.4800,304
2.4820,224
2.4840,544
2.4860,0
2.4880,400
2.4900,224
2.4920,256
2.4940,1008
2.4960,656
2.4980,384
2.5000,336
2.5020,528
2.5040,336
2.5060,192
2.5080,288
2.5100,512
2.5120,544
2.5140,416
2.5160,240
2.5180,464
2.5200,432
2.5220,480
2.5240,320
2.5260,0
2.5280,144
2.5300,864
2.5320,512
2.5340,400
2.5360,2688
2.5380,416
2.5400,368
2.5420,480
2.5440,784
2.5460,832
2.5480,528
2.5500,560
2.5520,384
2.5540,576
2.5560,544
2.5580,720
2.5600,384
2.5620,448
2.5640,224
2.5660,432
2.5680,144
2.5700,208
2.5720,656
2.5740,800
2.5760,352
2.5780,304
2.5800,0
2.5820,448
2.5840,208
2.5860,128
2.5880,640
2.5900,128
2.5920,80
2.5940,192
2.5960,176
2.5980,224
2.6000,160
2.6020,448
2.6040,64
2.6060,416
2.6080,320
2.6100,848
2.6120,560
2.6140,896
2.6160,688
2.6180,592
2.6200,704
2.6220,176
2.6240,160
2.6260,336
2.6280,576
2.6300,432
2.6320,320
2.6340,480
2.6360,336
2.6380,560
2.6400,384
2.6420,288
2.6440,944
2.6460,544
2.6480,304
2.6500,464
2.6520,1872
2.6540,320
2.6560,576
2.6580,352
2.6600,688
2.6620,304
2.6640,64
2.6660,208
2.6680,544
2.6700,816
2.6720,336
2.6740,224
2.6760,416
2.6780,384
2.6800,160
2.6820,304
2.6840,544
2.6860,224
2.6880,272
2.6900,560
2.6920,208
2.6940,208
2.6960,320
2.6980,304
2.7000,64
2.7020,832
2.7040,272
2.7060,96
2.7080,832
2.7100,368
2.7120,208
2.7140,576
2.7160,544
2.7180,592
2.7200,128
2.7220,192
2.7240,320
2.7260,528
2.7280,320
2.7300,848
2.7320,640
2.7340,544
2.7360,416
2.7380,576
2.7400,0
2.7420,928
2.7440,304
2.7460,640
2.7480,928
2.7500,256
2.7520,272
2.7540,256
2.7560,464
2.7580,480
2.7600,160
2.7620,512
2.7640,560
2.7660,224
2.7680,832
2.7700,464
2.7720,656
2.7740,1008
2.7760,784
2.7780,496
2.7800,160
2.7820,304
2.7840,176
2.7860,560
2.7880,224
2.7900,416
2.7920,288
2.7940,288
2.7960,384
2.7980,816
2.8000,1488
2.8020,1376
2.8040,256
2.8060,304
2.8080,560
2.8100,336
2.8120,432
2.8140,400
2.8160,224
2.8180,1856
2.8200,0
2.8220,336
2.8240,384
2.8260,768
2.8280,160
2.8300,464
2.8320,1360
2.8340,480
2.8360,544
2.8380,416
2.8400,416
2.8420,400
2.8440,400
2.8460,928
2.8480,752
2.8500,544
2.8520,16
2.8540,576
2.8560,176
2.8580,1216
2.8600,432
2.8620,224
2.8640,464
2.8660,384
2.8680,400
2.8700,416
2.8720,352
2.8740,160
2.8760,192
2.8780,480
2.8800,96
2.8820,144
2.8840,208
2.8860,544
2.8880,320
2.8900,176
2.8920,592
2.8940,480
2.8960,416
2.8980,272
2.9000,336
2.9020,256
2.9040,816
2.9060,448
2.9080,448
2.9100,544
2.9120,256
2.9140,416
2.9160,224
2.9180,880
2.9200,0
2.9220,480
2.9240,1712
2.9260,736
2.9280,320
2.9300,176
2.9320,208
2.9340,336
2.9360,208
2.9380,320
2.9400,304
2.9420,160
2.9440,544
2.9460,944
2.9480,352
2.9500,592
2.9520,1024
2.9540,336
2.9560,208
2.9580,304
2.9600,256
2.9620,304
2.9640,656
2.9660,1264
2.9680,272
2.9700,400
2.9720,336
2.9740,256
2.9760,256
2.9780,240
2.9800,160
2.9820,432
2.9840,256
2.9860,304
2.9880,208
2.9900,720
2.9920,688
2.9940,592
2.9960,848
2.9980,480
3.0000,224
3.0020,512
3.0040,1232
3.0060,864
3.0080,560
3.0100,464
3.0120,528
3.0140,176
3.0160,128
3.0180,288
3.0200,496
3.0220,288
3.0240,0
3.0260,608
3.0280,336
3.0300,1408
3.0320,224
3.0340,160
3.0360,1088
3.0380,320
3.0400,784
3.0420,608
3.0440,272
3.0460,448
3.0480,1488
3.0500,448
3.0520,592
3.0540,352
3.0560,1184
3.0580,640
3.0600,688
3.0620,48
3.0640,64
3.0660,608
3.0680,224
3.0700,288
3.0720,192
3.0740,608
3.0760,816
3.0780,272
3.0800,336
3.0820,144
3.0840,1616
3.0860,304
3.0880,336
3.0900,576
3.0920,256
3.0940,80
3.0960,608
3.0980,576
3.1000,240
3.1020,400
3.1040,256
3.1060,464
3.1080,448
3.1100,2176
3.1120,480
3.1140,320
3.1160,464
3.1180,1248
3.1200,384
3.1220,288
3.1240,96
3.1260,1328
3.1280,160
3.1300,768
3.1320,592
3.1340,224
3.1360,832
3.1380,80
3.1400,128
3.1420,176
3.1440,528
3.1460,192
3.1480,128
3.1500,512
3.1520,480
3.1540,656
3.1560,0
3.1580,48
3.1600,576
3.1620,320
3.1640,544
3.1660,304
3.1680,1360
3.1700,544
3.1720,1536
3.1740,640
3.1760,272
3.1780,464
3.1800,688
3.1820,128
3.1840,464
3.1860,608
3.1880,80
3.1900,432
3.1920,432
3.1940,688
3.1960,288
3.1980,1280
3.2000,208
3.2020,992
3.2040,560
3.2060,240
3.2080,1040
3.2100,432
3.2120,272
3.2140,672
3.2160,160
3.2180,208
3.2200,112
3.2220,352
3.2240,576
3.2260,528
3.2280,176
3.2300,608
3.2320,416
3.2340,480
3.2360,400
3.2380,400
3.2400,1232
3.2420,1552
3.2440,208
3.2460,192
3.2480,160
3.2500,224
3.2520,80
3.2540,400
3.2560,288
3.2580,512
3.2600,304
3.2620,576
3.2640,432
3.2660,32
3.2680,160
3.2700,448
3.2720,96
3.2740,192
3.2760,416
3.2780,128
3.2800,544
3.2820,1600
3.2840,528
3.2860,832
3.2880,464
3.2900,464
3.2920,640
3.2940,176
3.2960,96
3.2980,544
3.3000,0
3.3020,2496
3.3040,384
3.3060,5793
3.3080,6337
3.3100,304
3.3120,480
3.3140,944
3.3160,160
3.3180,448
3.3200,672
3.3220,176
3.3240,336
3.3260,192
3.3280,272
3.3300,608
3.3320,2080
3.3340,256
3.3360,592
3.3380,368
3.3400,384
3.3420,560
3.3440,368
3.3460,416
3.3480,224
3.3500,480
3.3520,592
3.3540,96
3.3560,336
3.3580,384
3.3600,656
3.3620,1744
3.3640,256
3.3660,224
3.3680,1152
3.3700,464
3.3720,160
3.3740,752
3.3760,688
3.3780,432
3.3800,416
3.3820,672
3.3840,928
3.3860,352
3.3880,1200
3.3900,576
3.3920,736
3.3940,336
3.3960,336
3.3980,528
3.4000,208
3.4020,1360
3.4040,320
3.4060,384
3.4080,256
3.4100,816
3.4120,160
3.4140,976
3.4160,160
3.4180,288
3.4200,848
3.4220,272
3.4240,1056
3.4260,368
3.4280,368
3.4300,160
3.4320,1232
3.4340,304
3.4360,16
3.4380,608
3.4400,640
3.4420,352
3.4440,192
3.4460,512
3.4480,608
3.4500,144
3.4520,1248
3.4540,528
3.4560,576
3.4580,432
3.4600,224
3.4620,512
3.4640,16
3.4660,432
3.4680,400
3.4700,80
3.4720,128
3.4740,800
3.4760,64
3.4780,1936
3.4800,1120
3.4820,96
3.4840,1184
3.4860,448
3.4880,176
3.4900,528
3.4920,224
3.4940,448
3.4960,384
3.4980,304
3.5000,320
3.5020,352
3.5040,384
3.5060,256
3.5080,2560
3.5100,336
3.5120,672
3.5140,640
3.5160,320
3.5180,256
3.5200,1152
3.5220,480
3.5240,256
3.5260,496
3.5280,448
3.5300,320
3.5320,768
3.5340,1184
3.5360,480
3.5380,736
3.5400,784
3.5420,192
3.5440,448
3.5460,560
3.5480,544
3.5500,224
3.5520,816
3.5540,288
3.5560,0
3.5580,976
3.5600,480
3.5620,336
3.5640,336
3.5660,48
3.5680,1792
3.5700,752
3.5720,16
3.5740,1200
3.5760,544
3.5780,240
3.5800,480
3.5820,432
3.5840,784
3.5860,128
3.5880,288
3.5900,720
3.5920,272
3.5940,576
3.5960,496
3.5980,128
3.6000,800
3.6020,272
3.6040,416
3.6060,768
3.6080,320
3.6100,432
3.6120,544
3.6140,416
3.6160,1200
3.6180,912
3.6200,224
3.6220,512
3.6240,1280
3.6260,704
3.6280,784
3.6300,432
3.6320,256
3.6340,1696
3.6360,0
3.6380,1504
3.6400,528
3.6420,320
3.6440,400
3.6460,592
3.6480,400
3.6500,304
3.6520,288
3.6540,784
3.6560,272
3.6580,432
3.6600,688
3.6620,224
3.6640,208
3.6660,352
3.6680,304
3.6700,256
3.6720,1248
3.6740,448
3.6760,576
3.6780,464
3.6800,320
3.6820,464
3.6840,256
3.6860,352
3.6880,176
3.6900,288
3.6920,448
3.6940,400
3.6960,176
3.6980,112
3.7000,240
3.7020,1952
3.7040,2368
3.7060,304
3.7080,704
3.7100,160
3.7120,240
3.7140,288
3.7160,32
3.7180,1888
3.7200,1696
3.7220,784
3.7240,192
3.7260,512
3.7280,416
3.7300,272
3.7320,448
3.7340,256
3.7360,432
3.7380,1424
3.7400,1072
3.7420,432
3.7440,1168
3.7460,384
3.7480,208
3.7500,1120
3.7520,192
3.7540,528
3.7560,576
3.7580,320
3.7600,1072
3.7620,2400
3.7640,336
3.7660,256
3.7680,896
3.7700,1968
3.7720,1792
3.7740,528
3.7760,928
3.7780,832
3.7800,288
3.7820,176
3.7840,256
3.7860,816
3.7880,768
3.7900,832
3.7920,384
3.7940,576
3.7960,144
3.7980,384
3.8000,304
3.8020,480
3.8040,192
3.8060,288
3.8080,192
3.8100,512
3.8120,224
3.8140,576
3.8160,432
3.8180,1104
3.8200,496
3.8220,608
3.8240,352
3.8260,400
3.8280,544
3.8300,416
3.8320,208
3.8340,304
3.8360,176
3.8380,336
3.8400,400
3.8420,448
3.8440,0
3.8460,512
3.8480,560
3.8500,400
3.8520,608
3.8540,320
3.8560,400
3.8580,64
3.8600,64
3.8620,848
3.8640,272
3.8660,480
3.8680,224
3.8700,272
3.8720,608
3.8740,416
3.8760,432
3.8780,192
3.8800,432
3.8820,576
3.8840,384
3.8860,288
3.8880,528
3.8900,288
3.8920,256
3.8940,608
3.8960,208
3.8980,720
3.9000,432
3.9020,672
3.9040,208
3.9060,800
3.9080,0
3.9100,128
3.9120,112
3.9140,224
3.9160,320
3.9180,304
3.9200,720
3.9220,288
3.9240,1408
3.9260,1472
3.9280,400
3.9300,608
3.9320,1024
3.9340,1664
3.9360,224
3.9380,1040
3.9400,144
3.9420,496
3.9440,560
3.9460,944
3.9480,720
3.9500,288
3.9520,240
3.9540,64
3.9560,464
3.9580,208
3.9600,288
3.9620,576
3.9640,336
3.9660,48
3.9680,1552
3.9700,144
3.9720,400
3.9740,128
3.9760,720
3.9780,176
3.9800,384
3.9820,1296
3.9840,1360
3.9860,384
3.9880,560
3.9900,272
3.9920,672
3.9940,416
3.9960,432
3.9980,336
4.0000,96
4.0020,176
4.0040,496
4.0060,208
4.0080,800
4.0100,992
4.0120,528
4.0140,384
4.0160,304
4.0180,1888
4.0200,736
4.0220,304
4.0240,752
4.0260,208
4.0280,528
4.0300,688
4.0320,2192
4.0340,1088
4.0360,480
4.0380,1440
4.0400,400
4.0420,288
4.0440,352
4.0460,416
4.0480,112
4.0500,1296
4.0520,2048
4.0540,1024
4.0560,432
4.0580,128
4.0600,1152
4.0620,368
4.0640,512
4.0660,576
4.0680,128
4.0700,416
4.0720,192
4.0740,416
4.0760,256
4.0780,176
4.0800,928
4.0820,32
4.0840,16
4.0860,400
4.0880,208
4.0900,992
4.0920,608
4.0940,400
4.0960,80
4.0980,336
4.1000,464
4.1020,432
4.1040,736
4.1060,448
4.1080,224
4.1100,672
4.1120,176
4.1140,1728
4.1160,304
4.1180,832
4.1200,640
4.1220,208
4.1240,160
4.1260,352
4.1280,576
4.1300,352
4.1320,208
4.1340,288
4.1360,208
4.1380,416
4.1400,448
4.1420,784
4.1440,592
4.1460,336
4.1480,0
4.1500,304
4.1520,352
4.1540,1008
4.1560,640
4.1580,832
4.1600,432
4.1620,368
4.1640,256
4.1660,1024
4.1680,512
4.1700,720
4.1720,592
4.1740,336
4.1760,400
4.1780,400
4.1800,176
4.1820,784
4.1840,576
4.1860,704
4.1880,384
4.1900,288
4.1920,288
4.1940,304
4.1960,448
4.1980,160
4.2000,160
4.2020,768
4.2040,416
4.2060,704
4.2080,432
4.2100,304
4.2120,352
4.2140,944
4.2160,432
4.2180,688
4.2200,688
4.2220,656
4.2240,80
4.2260,320
4.2280,208
4.2300,704
4.2320,288
4.2340,1584
4.2360,320
4.2380,400
4.2400,448
4.2420,528
4.2440,992
4.2460,336
4.2480,48
4.2500,784
4.2520,432
4.2540,256
4.2560,448
4.2580,656
4.2600,656
4.2620,112
4.2640,480
4.2660,0
4.2680,2464
4.2700,176
4.2720,192
4.2740,464
4.2760,816
4.2780,560
4.2800,272
4.2820,720
4.2840,96
4.2860,272
4.2880,176
4.2900,304
4.2920,192
4.2940,432
4.2960,256
4.2980,256
4.3000,704
4.3020,512
4.3040,176
4.3060,1072
4.3080,384
4.3100,208
4.3120,1104
4.3140,464
4.3160,32
4.3180,144
4.3200,448
4.3220,288
4.3240,256
4.3260,1040
4.3280,496
4.3300,352
4.3320,336
4.3340,272
4.3360,560
4.3380,512
4.3400,64
4.3420,416
4.3440,768
4.3460,64
4.3480,480
4.3500,416
4.3520,688
4.3540,400
4.3560,384
4.3580,160
4.3600,512
4.3620,288
4.3640,160
4.3660,304
4.3680,560
4.3700,464
4.3720,0
4.3740,640
4.3760,48
4.3780,352
4.3800,592
4.3820,416
4.3840,384
4.3860,528
4.3880,288
4.3900,208
4.3920,224
4.3940,224
4.3960,272
4.3980,16
4.4000,96
4.4020,144
4.4040,256
4.4060,544
4.4080,688
4.4100,656
4.4120,672
4.4140,208
4.4160,384
4.4180,960
4.4200,304
4.4220,160
4.4240,224
4.4260,480
4.4280,432
4.4300,208
4.4320,400
4.4340,1360
4.4360,592
4.4380,528
4.4400,448
4.4420,512
4.4440,544
4.4460,672
4.4480,560
4.4500,688
4.4520,432
4.4540,544
4.4560,704
4.4580,432
4.4600,432
4.4620,528
4.4640,768
4.4660,432
4.4680,864
4.4700,128
4.4720,1056
4.4740,432
4.4760,528
4.4780,512
4.4800,528
4.4820,432
4.4840,352
4.4860,496
4.4880,1136
4.4900,512
4.4920,160
4.4940,416
4.4960,400
4.4980,1088
4.5000,784
4.5020,480
4.5040,736
4.5060,864
4.5080,528
4.5100,1408
4.5120,576
4.5140,2224
4.5160,768
4.5180,304
4.5200,400
4.5220,288
4.5240,224
4.5260,336
4.5280,1840
4.5300,432
4.5320,656
4.5340,1440
4.5360,480
4.5380,272
4.5400,288
4.5420,256
4.5440,1984
4.5460,272
4.5480,1072
4.5500,256
4.5520,512
4.5540,96
4.5560,0
4.5580,64
4.5600,352
4.5620,320
4.5640,816
4.5660,400
4.5680,704
4.5700,400
4.5720,1664
4.5740,448
4.5760,592
4.5780,192
4.5800,304
4.5820,512
4.5840,480
4.5860,336
4.5880,336
4.5900,448
4.5920,1184
4.5940,656
4.5960,256
4.5980,320
4.6000,304
4.6020,832
4.6040,96
4.6060,368
4.6080,1104
4.6100,128
4.6120,384
4.6140,592
4.6160,560
4.6180,160
4.6200,144
4.6220,528
4.6240,304
4.6260,240
4.6280,336
4.6300,688
4.6320,848
4.6340,464
4.6360,288
4.6380,512
4.6400,560
4.6420,448
4.6440,928
4.6460,528
4.6480,544
4.6500,288
4.6520,432
4.6540,224
4.6560,224
4.6580,480
4.6600,1120
4.6620,800
4.6640,160
4.6660,1088
4.6680,816
4.6700,672
4.6720,304
4.6740,368
4.6760,640
4.6780,64
4.6800,448
4.6820,592
4.6840,608
4.6860,400
4.6880,416
4.6900,416
4.6920,368
4.6940,560
4.6960,192
4.6980,384
4.7000,656
4.7020,480
4.7040,560
4.7060,432
4.7080,512
4.7100,512
4.7120,448
4.7140,384
4.7160,464
4.7180,2432
4.7200,560
4.7220,480
4.7240,416
4.7260,464
4.7280,368
4.7300,784
4.7320,512
4.7340,464
4.7360,224
4.7380,160
4.7400,256
4.7420,640
4.7440,352
4.7460,640
4.7480,240
4.7500,320
4.7520,224
4.7540,336
4.7560,512
4.7580,352
4.7600,304
4.7620,416
4.7640,64
4.7660,448
4.7680,560
4.7700,640
4.7720,864
4.7740,336
4.7760,1968
4.7780,416
4.7800,528
4.7820,704
4.7840,464
4.7860,288
4.7880,688
4.7900,320
4.7920,176
4.7940,288
4.7960,400
4.7980,336
4.8000,144
4.8020,400
4.8040,816
4.8060,448
4.8080,400
4.8100,592
4.8120,384
4.8140,304
4.8160,912
4.8180,352
4.8200,320
4.8220,288
4.8240,352
4.8260,128
4.8280,320
4.8300,928
4.8320,672
4.8340,352
4.8360,496
4.8380,608
4.8400,208
4.8420,208
4.8440,496
4.8460,544
4.8480,512
4.8500,560
4.8520,400
4.8540,400
4.8560,512
4.8580,320
4.8600,272
4.8620,192
4.8640,528
4.8660,1104
4.8680,208
4.8700,576
4.8720,112
4.8740,160
4.8760,272
4.8780,640
4.8800,288
4.8820,384
4.8840,560
4.8860,304
4.8880,144
4.8900,0
4.8920,432
4.8940,416
4.8960,336
4.8980,528
4.9000,512
4.9020,96
4.9040,912
4.9060,224
4.9080,336
4.9100,448
4.9120,240
4.9140,176
4.9160,128
4.9180,528
4.9200,912
4.9220,464
4.9240,624
4.9260,848
4.9280,912
4.9300,560
4.9320,784
4.9340,560
4.9360,256
4.9380,432
4.9400,576
4.9420,176
4.9440,720
4.9460,320
4.9480,144
4.9500,480
4.9520,256
4.9540,768
4.9560,1168
4.9580,544
4.9600,608
4.9620,192
4.9640,512
4.9660,304
4.9680,352
4.9700,608
4.9720,112
4.9740,432
4.9760,112
4.9780,304
4.9800,352
4.9820,256
4.9840,208
4.9860,800
4.9880,576
4.9900,480
4.9920,608
4.9940,560
4.9960,640
4.9980,160
5.0000,1424
5.0020,1056
5.0040,272
5.0060,96
5.0080,192
5.0100,608
5.0120,368
5.0140,800
5.0160,1248
5.0180,448
5.0200,1216
5.0220,656
5.0240,176
5.0260,1024
5.0280,176
5.0300,464
5.0320,176
5.0340,288
5.0360,16
5.0380,464
5.0400,384
5.0420,576
5.0440,912
5.0460,464
5.0480,256
5.0500,1872
5.0520,208
5.0540,336
5.0560,128
5.0580,784
5.0600,560
5.0620,704
5.0640,992
5.0660,400
5.0680,304
5.0700,176
5.0720,240
5.0740,416
5.0760,544
5.0780,784
5.0800,336
5.0820,416
5.0840,528
5.0860,464
5.0880,528
5.0900,464
5.0920,624
5.0940,336
5.0960,384
5.0980,80
5.1000,144
5.1020,592
5.1040,400
5.1060,64
5.1080,736
5.1100,896
5.1120,80
5.1140,1344
5.1160,176
5.1180,800
5.1200,432
5.1220,992
5.1240,464
5.1260,192
5.1280,496
5.1300,592
5.1320,96
5.1340,448
5.1360,208
5.1380,656
5.1400,528
5.1420,736
5.1440,320
5.1460,368
5.1480,192
5.1500,368
5.1520,128
5.1540,560
5.1560,224
5.1580,288
5.1600,640
5.1620,544
5.1640,352
5.1660,320
5.1680,288
5.1700,384
5.1720,160
5.1740,512
5.1760,304
5.1780,192
5.1800,752
5.1820,432
5.1840,928
5.1860,944
5.1880,496
5.1900,160
5.1920,512
5.1940,464
5.1960,784
5.1980,512
5.2000,688
5.2020,608
5.2040,704
5.2060,256
5.2080,352
5.2100,352
5.2120,336
5.2140,464
5.2160,544
5.2180,416
5.2200,432
5.2220,176
5.2240,304
5.2260,528
5.2280,320
5.2300,192
5.2320,160
5.2340,688
5.2360,208
5.2380,464
5.2400,1456
5.2420,400
5.2440,304
5.2460,560
5.2480,352
5.2500,272
5.2520,0
5.2540,544
5.2560,432
5.2580,224
5.2600,528
5.2620,144
5.2640,528
5.2660,512
5.2680,352
5.2700,448
5.2720,720
5.2740,464
5.2760,1088
5.2780,1552
5.2800,208
5.2820,1424
5.2840,608
5.2860,336
5.2880,80
5.2900,464
5.2920,656
5.2940,272
5.2960,288
5.2980,272
5.3000,768
5.3020,224
5.3040,256
5.3060,352
5.3080,784
5.3100,208
5.3120,448
5.3140,0
5.3160,240
5.3180,528
5.3200,48
5.3220,384
5.3240,32
5.3260,608
5.3280,288
5.3300,288
5.3320,464
5.3340,576
5.3360,208
5.3380,464
5.3400,608
5.3420,464
5.3440,768
5.3460,2704
5.3480,224
5.3500,272
5.3520,1344
5.3540,432
5.3560,464
5.3580,896
5.3600,224
5.3620,768
5.3640,208
5.3660,384
5.3680,464
5.3700,512
5.3720,256
5.3740,464
5.3760,608
5.3780,320
5.3800,336
5.3820,384
5.3840,432
5.3860,400
5.3880,224
5.3900,176
5.3920,384
5.3940,48
5.3960,720
5.3980,896
5.4000,1248
5.4020,144
5.4040,352
5.4060,384
5.4080,128
5.4100,608
5.4120,288
5.4140,592
5.4160,512
5.4180,544
5.4200,704
5.4220,96
5.4240,848
5.4260,608
5.4280,384
5.4300,432
5.4320,544
5.4340,1232
5.4360,256
5.4380,224
5.4400,432
5.4420,400
5.4440,96
5.4460,768
5.4480,608
5.4500,352
5.4520,208
5.4540,688
5.4560,400
5.4580,416
5.4600,432
5.4620,176
5.4640,256
5.4660,192
5.4680,272
5.4700,176
5.4720,688
5.4740,416
5.4760,192
5.4780,16
5.4800,352
5.4820,192
5.4840,208
5.4860,256
5.4880,400
5.4900,336
5.4920,528
5.4940,96
5.4960,1040
5.4980,48
5.5000,512
5.5020,256
5.5040,544
5.5060,16
5.5080,432
5.5100,784
5.5120,768
5.5140,1888
5.5160,592
5.5180,368
5.5200,432
5.5220,592
5.5240,416
5.5260,464
5.5280,736
5.5300,336
5.5320,576
5.5340,928
5.5360,608
5.5380,912
5.5400,912
5.5420,464
5.5440,416
5.5460,560
5.5480,496
5.5500,672
5.5520,384
5.5540,288
5.5560,416
5.5580,1152
5.5600,304
5.5620,336
5.5640,608
5.5660,848
5.5680,496
5.5700,928
5.5720,272
5.5740,208
5.5760,896
5.5780,784
5.5800,304
5.5820,320
5.5840,1424
5.5860,736
5.5880,560
5.5900,640
5.5920,176
5.5940,1600
5.5960,208
5.5980,608
5.6000,288
5.6020,640
5.6040,272
5.6060,288
5.6080,336
5.6100,448
5.6120,672
5.6140,832
5.6160,976
5.6180,352
5.6200,592
5.6220,448
5.6240,544
5.6260,416
5.6280,528
5.6300,1440
5.6320,2176
5.6340,608
5.6360,480
5.6380,176
5.6400,192
5.6420,416
5.6440,192
5.6460,464
5.6480,80
5.6500,80
5.6520,448
5.6540,848
5.6560,336
5.6580,160
5.6600,208
5.6620,80
5.6640,176
5.6660,320
5.6680,496
5.6700,704
5.6720,592
5.6740,688
5.6760,1744
5.6780,528
5.6800,304
5.6820,160
5.6840,432
5.6860,352
5.6880,544
5.6900,672
5.6920,176
5.6940,720
5.6960,384
5.6980,64
5.7000,464
5.7020,256
5.7040,384
5.7060,272
5.7080,320
5.7100,208
5.7120,608
5.7140,592
5.7160,784
5.7180,480
5.7200,592
5.7220,256
5.7240,1440
5.7260,832
5.7280,448
5.7300,1184
5.7320,240
5.7340,144
5.7360,128
5.7380,416
5.7400,416
5.7420,608
5.7440,656
5.7460,480
5.7480,768
5.7500,672
5.7520,944
5.7540,480
5.7560,224
5.7580,704
5.7600,416
5.7620,768
5.7640,1312
5.7660,1440
5.7680,864
5.7700,160
5.7720,384
5.7740,800
5.7760,64
5.7780,272
5.7800,176
5.7820,480
5.7840,896
5.7860,400
5.7880,272
5.7900,592
5.7920,512
5.7940,416
5.7960,208
5.7980,608
5.8000,544
5.8020,576
5.8040,96
5.8060,976
5.8080,144
5.8100,544
5.8120,464
5.8140,1344
5.8160,336
5.8180,576
5.8200,592
5.8220,1312
5.8240,1168
5.8260,848
5.8280,768
5.8300,656
5.8320,544
5.8340,1632
5.8360,1360
5.8380,848
5.8400,384
5.8420,1472
5.8440,560
5.8460,736
5.8480,720
5.8500,624
5.8520,384
5.8540,336
5.8560,656
5.8580,464
5.8600,160
5.8620,592
5.8640,224
5.8660,752
5.8680,432
5.8700,560
5.8720,384
5.8740,432
5.8760,304
5.8780,560
5.8800,592
5.8820,752
5.8840,1104
5.8860,480
5.8880,352
5.8900,320
5.8920,400
5.8940,352
5.8960,832
5.8980,736
5.9000,176
5.9020,688
5.9040,336
5.9060,480
5.9080,1728
5.9100,1936
5.9120,320
5.9140,1328
5.9160,2000
5.9180,1584
5.9200,256
5.9220,816
5.9240,800
5.9260,704
5.9280,592
5.9300,656
5.9320,432
5.9340,160
5.9360,512
5.9380,448
5.9400,240
5.9420,992
5.9440,784
5.9460,176
5.9480,560
5.9500,464
5.9520,224
5.9540,320
5.9560,320
5.9580,656
5.9600,688
5.9620,576
5.9640,784
5.9660,816
5.9680,496
5.9700,400
5.9720,112
5.9740,80
5.9760,144
5.9780,832
5.9800,736
5.9820,1184
5.9840,1072
5.9860,384
5.9880,1360
5.9900,384
5.9920,512
5.9940,736
5.9960,592
5.9980,496
6.0000,624
6.0020,400
6.0040,672
6.0060,0
6.0080,736
6.0100,224
6.0120,512
6.0140,576
6.0160,2080
6.0180,400
6.0200,576
6.0220,336
6.0240,320
6.0260,448
6.0280,496
6.0300,544
6.0320,576
6.0340,1984
6.0360,768
6.0380,416
6.0400,1696
6.0420,272
6.0440,240
6.0460,352
6.0480,256
6.0500,912
6.0520,672
6.0540,800
6.0560,320
6.0580,624
6.0600,208
6.0620,208
6.0640,464
6.0660,192
6.0680,1776
6.0700,352
6.0720,432
6.0740,800
6.0760,992
6.0780,1040
6.0800,480
6.0820,432
6.0840,144
6.0860,160
6.0880,400
6.0900,352
6.0920,912
6.0940,288
6.0960,640
6.0980,800
6.1000,528
6.1020,912
6.1040,976
6.1060,496
6.1080,512
6.1100,480
6.1120,656
6.1140,352
6.1160,240
6.1180,224
6.1200,720
6.1220,864
6.1240,576
6.1260,160
6.1280,704
6.1300,32
6.1320,448
6.1340,336
6.1360,1088
6.1380,128
6.1400,416
6.1420,992
6.1440,192
6.1460,1040
6.1480,384
6.1500,640
6.1520,720
6.1540,528
6.1560,3632
6.1580,544
6.1600,2016
6.1620,624
6.1640,128
6.1660,288
6.1680,768
6.1700,320
6.1720,800
6.1740,832
6.1760,1072
6.1780,416
6.1800,480
6.1820,288
6.1840,400
6.1860,640
6.1880,1136
6.1900,640
6.1920,912
6.1940,640
6.1960,144
6.1980,320
6.2000,288
6.2020,224
6.2040,416
6.2060,512
6.2080,208
6.2100,896
6.2120,896
6.2140,128
6.2160,464
6.2180,960
6.2200,576
6.2220,912
6.2240,576
6.2260,336
6.2280,640
6.2300,352
6.2320,736
6.2340,368
6.2360,688
6.2380,352
6.2400,1200
6.2420,6481
6.2440,800
6.2460,416
6.2480,528
6.2500,800
6.2520,816
6.2540,544
6.2560,608
6.2580,336
6.2600,304
6.2620,400
6.2640,1104
6.2660,768
6.2680,3088
6.2700,1232
6.2720,512
6.2740,560
6.2760,592
6.2780,784
6.2800,256
6.2820,544
6.2840,736
6.2860,480
6.2880,224
6.2900,384
6.2920,208
6.2940,528
6.2960,640
6.2980,560
6.3000,416
6.3020,512
6.3040,688
6.3060,672
6.3080,272
6.3100,560
6.3120,1936
6.3140,720
6.3160,896
6.3180,48
6.3200,496
6.3220,720
6.3240,1376
6.3260,2304
6.3280,288
6.3300,896
6.3320,208
6.3340,352
6.3360,464
6.3380,656
6.3400,848
6.3420,1072
6.3440,768
6.3460,192
6.3480,928
6.3500,512
6.3520,3392
6.3540,1312
6.3560,4257
6.3580,2368
6.3600,464
6.3620,2176
6.3640,512
6.3660,432
6.3680,608
6.3700,128
6.3720,512
6.3740,1056
6.3760,416
6.3780,1824
6.3800,688
6.3820,416
6.3840,432
6.3860,2048
6.3880,848
6.3900,480
6.3920,144
6.3940,512
6.3960,656
6.3980,416
6.4000,3648
6.4020,464
6.4040,1680
6.4060,416
6.4080,3792
6.4100,1280
6.4120,2976
6.4140,6993
6.4160,2368
6.4180,528
6.4200,1360
6.4220,1920
6.4240,3008
6.4260,1088
6.4280,432
6.4300,4000
6.4320,272
6.4340,992
6.4360,528
6.4380,7825
6.4400,768
6.4420,9746
6.4440,3904
6.4460,10850
6.4480,1200
6.4500,576
6.4520,144
6.4540,1936
6.4560,2368
6.4580,3808
6.4600,576
6.4620,336
6.4640,576
6.4660,1088
6.4680,2928
6.4700,608
6.4720,912
6.4740,560
6.4760,1344
6.4780,944
6.4800,1104
6.4820,4305
6.4840,2192
6.4860,1360
6.4880,1712
6.4900,544
6.4920,160
6.4940,1552
6.4960,8434
6.4980,1424
6.5000,2272
6.5020,928
6.5040,6913
6.5060,2576
6.5080,2016
6.5100,656
6.5120,2528
6.5140,6609
6.5160,2608
6.5180,5217
6.5200,2512
6.5220,768
6.5240,1552
6.5260,9026
6.5280,11074
6.5300,2480
6.5320,9698
6.5340,480
6.5360,320
6.5380,976
6.5400,3328
6.5420,272
6.5440,1664
6.5460,2464
6.5480,816
6.5500,2704
6.5520,7777
6.5540,592
6.5560,640
6.5580,576
6.5600,288
6.5620,7025
6.5640,5633
6.5660,12355
6.5680,1104
6.5700,2240
6.5720,2432
6.5740,7489
6.5760,1696
6.5780,784
6.5800,3120
6.5820,784
6.5840,4273
6.5860,21045
6.5880,960
6.5900,4032
6.5920,8738
6.5940,496
6.5960,8354
6.5980,3408
6.6000,3120
6.6020,17332
6.6040,2832
6.6060,688
6.6080,8402
6.6100,496
6.6120,17684
6.6140,1504
6.6160,3216
6.6180,448
6.6200,2608
6.6220,560
6.6240,16339
6.6260,1104
6.6280,7713
6.6300,1360
6.6320,20549
6.6340,3616
6.6360,8610
6.6380,6705
6.6400,6977
6.6420,1088
6.6440,2864
6.6460,384
6.6480,10754
6.6500,5073
6.6520,17892
6.6540,4048
6.6560,8049
6.6580,10930
6.6600,4529
6.6620,4273
6.6640,1952
6.6660,1072
6.6680,992
6.6700,1328
6.6720,3744
6.6740,4497
6.6760,15507
6.6780,7249
6.6800,16019
6.6820,20501
6.6840,14563
6.6860,1280
6.6880,704
6.6900,864
6.6920,4353
6.6940,1248
6.6960,2976
6.6980,5473
6.7000,4865
6.7020,784
6.7040,5905
6.7060,4225
6.7080,9298
6.7100,14099
6.7120,2384
6.7140,1184
6.7160,2608
6.7180,8177
6.7200,10258
6.7220,1280
6.7240,7873
6.7260,1376
6.7280,3008
6.7300,7201
6.7320,1344
6.7340,2112
6.7360,1968
6.7380,3504
6.7400,1200
6.7420,6113
6.7440,8466
6.7460,14771
6.7480,19684
6.7500,17188
6.7520,2336
6.7540,6353
6.7560,11010
6.7580,928
6.7600,17044
6.7620,1552
6.7640,2208
6.7660,512
6.7680,10514
6.7700,3728
6.7720,7825
6.7740,1200
6.7760,3120
6.7780,1408
6.7800,16660
6.7820,1248
6.7840,1456
6.7860,3760
6.7880,5985
6.7900,17604
6.7920,1072
6.7940,9698
6.7960,14083
6.7980,4032
6.8000,18948
6.8020,1760
6.8040,1232
6.8060,1392
6.8080,4097
6.8100,4289
6.8120,12242
6.8140,3552
6.8160,4609
6.8180,6289
6.8200,4241
6.8220,12723
6.8240,9810
6.8260,3472
6.8280,13411
6.8300,9266
6.8320,19604
6.8340,1552
6.8360,5089
6.8380,1824
6.8400,4561
6.8420,960
6.8440,1936
6.8460,928
6.8480,512
6.8500,17140
6.8520,23637
6.8540,3040
6.8560,7089
6.8580,3552
6.8600,4753
6.8620,6705
6.8640,1040
6.8660,14307
6.8680,5985
6.8700,15315
6.8720,28582
6.8740,832
6.8760,5393
6.8780,1376
6.8800,6945
6.8820,11570
6.8840,14211
6.8860,3504
6.8880,14051
6.8900,4897
6.8920,7633
6.8940,12483
6.8960,6833
6.8980,1184
6.9000,4161
6.9020,1152
6.9040,5841
6.9060,1216
6.9080,4032
6.9100,2464
6.9120,34936
6.9140,17588
6.9160,4577
6.9180,25286
6.9200,11410
6.9220,6657
6.9240,1408
6.9260,8466
6.9280,7041
6.9300,672
6.9320,3776
6.9340,432
6.9360,3648
6.9380,14819
6.9400,21029
6.9420,4625
6.9440,2480
6.9460,4113
6.9480,18068
6.9500,5169
6.9520,896
6.9540,5585
6.9560,1040
6.9580,10114
6.9600,4241
6.9620,10066
6.9640,17860
6.9660,7953
6.9680,496
6.9700,15699
6.9720,17556
6.9740,448
6.9760,5041
6.9780,10018
6.9800,1056
6.9820,10194
6.9840,2752
6.9860,12723
6.9880,14611
6.9900,1808
6.9920,25382
6.9940,23205
6.9960,4225
6.9980,9394
7.0000,976
7.0020,5521
7.0040,800
7.0060,2320
7.0080,1104
7.0100,21813
7.0120,1840
7.0140,3408
7.0160,2720
7.0180,2128
7.0200,9826
7.0220,15523
7.0240,1248
7.0260,1472
7.0280,896
7.0300,1728
7.0320,3216
7.0340,3104
7.0360,7233
7.0380,15107
7.0400,11090
7.0420,1968
7.0440,2800
7.0460,8258
7.0480,13715
7.0500,8770
7.0520,3472
7.0540,10114
7.0560,2240
7.0580,10946
7.0600,4241
7.0620,12723
7.0640,2704
7.0660,13699
7.0680,3840
7.0700,1504
7.0720,1472
7.0740,21253
7.0760,14419
7.0780,4817
7.0800,24549
7.0820,15779
7.0840,12691
7.0860,1072
7.0880,9186
7.0900,4513
7.0920,3248
7.0940,11570
7.0960,17348
7.0980,2720
7.1000,1040
7.1020,1440
7.1040,12803
7.1060,5281
7.1080,3776
7.1100,16179
7.1120,8145
7.1140,3024
7.1160,25270
7.1180,27462
7.1200,944
7.1220,19908
7.1240,5057
7.1260,23893
7.1280,528
7.1300,12419
7.1320,4465
7.1340,1248
7.1360,1568
7.1380,3136
7.1400,10834
7.1420,14515
7.1440,2976
7.1460,6049
7.1480,12947
7.1500,26262
7.1520,9506
7.1540,4353
7.1560,20116
7.1580,18740
7.1600,1568
7.1620,9746
7.1640,2720
7.1660,2816
7.1680,12515
7.1700,8177
7.1720,11570
7.1740,9010
7.1760,1632
7.1780,28646
7.1800,6945
7.1820,5281
7.1840,8466
7.1860,2768
7.1880,2896
7.1900,3152
7.1920,22357
7.1940,2592
7.1960,5649
7.1980,16211
7.2000,1744
7.2020,2944
7.2040,13139
7.2060,672
7.2080,2352
7.2100,2896
7.2120,2736
7.2140,9058
7.2160,768
7.2180,1488
7.2200,16371
7.2220,24646
7.2240,2512
7.2260,816
7.2280,17620
7.2300,2624
7.2320,4673
7.2340,35048
7.2360,4625
7.2380,1120
7.2400,2240
7.2420,28566
7.2440,5281
7.2460,1248
7.2480,15363
7.2500,5297
7.2520,8994
7.2540,13699
7.2560,16820
7.2580,4080
7.2600,9026
7.2620,2912
7.2640,1888
7.2660,1584
7.2680,1808
7.2700,1792
7.2720,1424
7.2740,16580
7.2760,3568
7.2780,6177
7.2800,2336
7.2820,688
7.2840,14179
7.2860,13075
7.2880,4881
7.2900,15891
7.2920,15523
7.2940,6273
7.2960,22245
7.2980,27222
7.3000,2208
7.3020,1248
7.3040,13843
7.3060,1312
7.3080,9778
7.3100,25126
7.3120,8338
7.3140,1040
7.3160,8450
7.3180,6481
7.3200,6097
7.3220,2336
7.3240,24517
7.3260,5889
7.3280,18484
7.3300,20452
7.3320,19524
7.3340,1696
7.3360,384
7.3380,480
7.3400,4273
7.3420,8578
7.3440,3392
7.3460,272
7.3480,13475
7.3500,8129
7.3520,1968
7.3540,2896
7.3560,8226
7.3580,6593
7.3600,22101
7.3620,15715
7.3640,5953
7.3660,2016
7.3680,1728
7.3700,4161
7.3720,6801
7.3740,9346
7.3760,13987
7.3780,2560
7.3800,576
7.3820,272
7.3840,1584
7.3860,3760
7.3880,10690
7.3900,8786
7.3920,14019
7.3940,5329
7.3960,704
7.3980,2128
7.4000,9234
7.4020,7169
7.4040,12947
7.4060,800
7.4080,4305
7.4100,31559
7.4120,8129
7.4140,27206
7.4160,10898
7.4180,12355
7.4200,23381
7.4220,5441
7.4240,17476
7.4260,5345
7.4280,2080
7.4300,1072
7.4320,5057
7.4340,976
7.4360,13075
7.4380,17876
7.4400,5841
7.4420,928
7.4440,5537
7.4460,10626
7.4480,2368
7.4500,13555
7.4520,1936
7.4540,1040
7.4560,6497
7.4580,8498
7.4600,16339
7.4620,13939
7.4640,816
7.4660,960
7.4680,6785
7.4700,16259
7.4720,14547
7.4740,3408
7.4760,8994
7.4780,1248
7.4800,4865
7.4820,7697
7.4840,38409
7.4860,8194
7.4880,6337
7.4900,13859
7.4920,1280
7.4940,1760
7.4960,3472
7.4980,560
7.5000,8770
7.5020,17060
7.5040,1296
7.5060,784
7.5080,12499
7.5100,23221
7.5120,16035
7.5140,17508
7.5160,10306
7.5180,1120
7.5200,10306
7.5220,912
7.5240,20853
7.5260,17364
7.5280,25030
7.5300,25494
7.5320,20340
7.5340,17044
7.5360,928
7.5380,11106
7.5400,12114
7.5420,10578
7.5440,9842
7.5460,2336
7.5480,20501
7.5500,3616
7.5520,1088
7.5540,16676
7.5560,6801
7.5580,5713
7.5600,1952
7.5620,2576
7.5640,4241
7.5660,11122
7.5680,1888
7.5700,1968
7.5720,1856
7.5740,13027
7.5760,2528
7.5780,1680
7.5800,1056
7.5820,19892
7.5840,5057
7.5860,31511
7.5880,7713
7.5900,17172
7.5920,14163
7.5940,11650
7.5960,1360
7.5980,2208
7.6000,4417
7.6020,8482
7.6040,1472
7.6060,8177
7.6080,3728
7.6100,7777
7.6120,26630
7.6140,7233
7.6160,5601
7.6180,2320
7.6200,1088
7.6220,5585
7.6240,14339
7.6260,2224
7.6280,816
7.6300,20581
7.6320,1616
7.6340,6577
7.6360,1152
7.6380,4609
7.6400,6961
7.6420,14979
7.6440,9378
7.6460,1952
7.6480,3456
7.6500,3872
7.6520,656
7.6540,14547
7.6560,8466
7.6580,1680
7.6600,1424
7.6620,2096
7.6640,11794
7.6660,9426
7.6680,6481
7.6700,3856
7.6720,4145
7.6740,6289
7.6760,2304
7.6780,3520
7.6800,9218
7.6820,5649
7.6840,6721
7.6860,1936
7.6880,11474
7.6900,480
7.6920,4897
7.6940,2832
7.6960,2512
7.6980,1008
7.7000,9426
7.7020,5697
7.7040,1616
7.7060,1552
7.7080,6833
7.7100,23605
7.7120,1408
7.7140,2128
7.7160,1584
7.7180,7553
7.7200,8081
7.7220,2736
7.7240,4897
7.7260,704
7.7280,512
7.7300,8177
7.7320,15123
7.7340,6065
7.7360,7489
7.7380,7697
7.7400,1632
7.7420,7265
7.7440,7825
7.7460,7457
7.7480,20436
7.7500,1056
7.7520,9474
7.7540,1616
7.7560,20549
7.7580,8770
7.7600,5137
7.7620,10658
7.7640,12643
7.7660,3280
7.7680,11218
7.7700,5793
7.7720,1504
7.7740,15123
7.7760,10962
7.7780,14691
7.7800,18324
7.7820,2256
7.7840,2528
7.7860,8834
7.7880,1696
7.7900,1488
7.7920,3168
7.7940,9010
7.7960,7201
7.7980,16708
7.8000,704
7.8020,864
7.8040,10658
7.8060,6785
7.8080,5441
7.8100,3248
7.8120,15011
7.8140,16259
7.8160,15971
7.8180,6193
7.8200,4337
7.8220,1856
7.8240,1680
7.8260,720
7.8280,8642
7.8300,1520
7.8320,4193
7.8340,16484
7.8360,8978
7.8380,1600
7.8400,10050
7.8420,7937
7.8440,10594
7.8460,16868
7.8480,11698
7.8500,2192
7.8520,4129
7.8540,12499
7.8560,1520
7.8580,2560
7.8600,8994
7.8620,784
7.8640,2752
7.8660,5505
7.8680,4145
7.8700,4000
7.8720,352
7.8740,8594
7.8760,8258
7.8780,1664
7.8800,2944
7.8820,2000
7.8840,5553
7.8860,4497
7.8880,6577
7.8900,2816
7.8920,2512
7.8940,4593
7.8960,560
7.8980,16420
7.9000,1280
7.9020,3472
7.9040,1312
7.9060,1024
7.9080,4080
7.9100,6529
7.9120,3360
7.9140,8850
7.9160,544
7.9180,23749
7.9200,1760
7.9220,1024
7.9240,2272
7.9260,14419
7.9280,11570
7.9300,1056
7.9320,7121
7.9340,3488
7.9360,2320
7.9380,1936
7.9400,9410
7.9420,3744
7.9440,2320
7.9460,13667
7.9480,7217
7.9500,7345
7.9520,15955
7.9540,4913
7.9560,1312
7.9580,12467
7.9600,992
7.9620,3744
7.9640,8033
7.9660,1440
7.9680,21829
7.9700,36616
7.9720,12114
7.9740,688
7.9760,3760
7.9780,19956
7.9800,1920
7.9820,6673
7.9840,4481
7.9860,9634
7.9880,19444
7.9900,1232
7.9920,10738
7.9940,16852
7.9960,464
7.9980,4721
8.0000,768
8.0020,5633
8.0040,2688
8.0060,7089
8.0080,2368
8.0100,704
8.0120,4753
8.0140,576
8.0160,1472
8.0180,2992
8.0200,12643
8.0220,1344
8.0240,4225
8.0260,704
8.0280,2000
8.0300,10882
8.0320,9106
8.0340,12643
8.0360,6225
8.0380,3856
8.0400,912
8.0420,1248
8.0440,512
8.0460,4417
8.0480,2512
8.0500,384
8.0520,3280
8.0540,704
8.0560,1536
8.0580,3136
8.0600,15651
8.0620,2592
8.0640,1552
8.0660,18964
8.0680,24117
8.0700,14659
8.0720,8049
8.0740,19908
8.0760,1296
8.0780,20164
8.0800,26710
8.0820,11058
8.0840,2352
8.0860,8177
8.0880,3312
8.0900,30183
8.0920,7489
8.0940,7649
8.0960,768
8.0980,1328
8.1000,20180
8.1020,7985
8.1040,11458
8.1060,1072
8.1080,1728
8.1100,640
8.1120,3536
8.1140,21733
8.1160,1280
8.1180,6241
8.1200,18308
8.1220,4321
8.1240,864
8.1260,928
8.1280,3680
8.1300,19940
8.1320,5393
8.1340,896
8.1360,10402
8.1380,1072
8.1400,304
8.1420,9746
8.1440,8562
8.1460,8642
8.1480,512
8.1500,14483
8.1520,2288
8.1540,1792
8.1560,832
8.1580,1376
8.1600,3872
8.1620,2304
8.1640,704
8.1660,352
8.1680,1808
8.1700,4577
8.1720,3072
8.1740,864
8.1760,1120
8.1780,12066
8.1800,15891
8.1820,4113
8.1840,512
8.1860,3504
8.1880,8258
8.1900,5313
8.1920,4161
8.1940,21397
8.1960,16259
8.1980,5905
8.2000,2912
8.2020,1200
8.2040,8866
8.2060,816
8.2080,6209
8.2100,11618
8.2120,2864
8.2140,1952
8.2160,3632
8.2180,9298
8.2200,16147
8.2220,10178
8.2240,7713
8.2260,2608
8.2280,3840
8.2300,8322
8.2320,19892
8.2340,2432
8.2360,11506
8.2380,2528
8.2400,1088
8.2420,7953
8.2440,11666
8.2460,6417
8.2480,3616
8.2500,8097
8.2520,10498
8.2540,1456
8.2560,15843
8.2580,960
8.2600,13235
8.2620,3008
8.2640,944
8.2660,22485
8.2680,784
8.2700,4225
8.2720,7217
8.2740,1168
8.2760,2736
8.2780,896
8.2800,2464
8.2820,27110
8.2840,608
8.2860,16708
8.2880,448
8.2900,6753
8.2920,10130
8.2940,6737
8.2960,10546
8.2980,8081
8.3000,1440
8.3020,2800
8.3040,4113
8.3060,2640
8.3080,3808
8.3100,25382
8.3120,512
8.3140,560
8.3160,2608
8.3180,21029
8.3200,1472
8.3220,8498
8.3240,752
8.3260,21221
8.3280,12819
8.3300,23717
8.3320,2784
8.3340,12883
8.3360,11698
8.3380,6337
8.3400,864
8.3420,12579
8.3440,2272
8.3460,8145
8.3480,5697
8.3500,3536
8.3520,3136
8.3540,7073
8.3560,6865
8.3580,11218
8.3600,6977
8.3620,12082
8.3640,10818
8.3660,1104
8.3680,8177
8.3700,4625
8.3720,27078
8.3740,13187
8.3760,3952
8.3780,2400
8.3800,2192
8.3820,3216
8.3840,7089
8.3860,10018
8.3880,1712
8.3900,2656
8.3920,736
8.3940,3984
8.3960,3776
8.3980,2976
8.4000,3792
8.4020,1392
8.4040,7969
8.4060,400
8.4080,2336
8.4100,9282
8.4120,800
8.4140,17764
8.4160,15027
8.4180,19524
8.4200,5409
8.4220,1040
8.4240,3520
8.4260,816
8.4280,11090
8.4300,13395
8.4320,12691
8.4340,1696
8.4360,1024
8.4380,9010
8.4400,2048
8.4420,432
8.4440,23781
8.4460,8834
8.4480,10450
8.4500,3968
8.4520,29383
8.4540,10898
8.4560,2768
8.4580,976
8.4600,3152
8.4620,1344
8.4640,5537
8.4660,3136
8.4680,1520
8.4700,1440
8.4720,8450
8.4740,3920
8.4760,304
8.4780,880
8.4800,6417
8.4820,14387
8.4840,11778
8.4860,17028
8.4880,10626
8.4900,21445
8.4920,3872
8.4940,8466
8.4960,4257
8.4980,960
8.5000,3936
8.5020,976
8.5040,5809
8.5060,512
8.5080,15795
8.5100,6705
8.5120,1696
8.5140,2848
8.5160,8065
8.5180,3440
8.5200,3936
8.5220,2192
8.5240,10674
8.5260,9378
8.5280,37929
8.5300,4000
8.5320,1280
8.5340,5425
8.5360,11026
8.5380,3392
8.5400,4257
8.5420,592
8.5440,1040
8.5460,5345
8.5480,7041
8.5500,24646
8.5520,5393
8.5540,8818
8.5560,864
8.5580,4385
8.5600,11314
8.5620,5313
8.5640,4145
8.5660,9506
8.5680,11346
8.5700,3424
8.5720,7601
8.5740,12755
8.5760,8177
8.5780,26774
8.5800,976
8.5820,2960
8.5840,5313
8.5860,9234
8.5880,14659
8.5900,8498
8.5920,4641
8.5940,7393
8.5960,14339
8.5980,6801
8.6000,1184
8.6020,13571
8.6040,13651
8.6060,1616
8.6080,4064
8.6100,816
8.6120,3136
8.6140,1168
8.6160,6593
8.6180,7889
8.6200,3136
8.6220,7057
8.6240,1936
8.6260,7745
8.6280,7265
8.6300,1680
8.6320,1056
8.6340,12899
8.6360,18628
8.6380,7729
8.6400,13075
8.6420,1024
8.6440,10402
8.6460,24069
8.6480,528
8.6500,5345
8.6520,8802
8.6540,5441
8.6560,6817
8.6580,7441
8.6600,800
8.6620,2576
8.6640,576
8.6660,10626
8.6680,416
8.6700,9522
8.6720,3376
8.6740,9922
8.6760,688
8.6780,14915
8.6800,6001
8.6820,6705
8.6840,12082
8.6860,11858
8.6880,1456
8.6900,912
8.6920,12018
8.6940,28454
8.6960,23253
8.6980,15939
8.7000,5649
8.7020,656
8.7040,8994
8.7060,2000
8.7080,33512
8.7100,31511
8.7120,17812
8.7140,2464
8.7160,7745
8.7180,6561
8.7200,11698
8.7220,8177
8.7240,1424
8.7260,5425
8.7280,10706
8.7300,5361
8.7320,3520
8.7340,2288
8.7360,5281
8.7380,4513
8.7400,3856
8.7420,2816
8.7440,4369
8.7460,448
8.7480,1440
8.7500,9890
8.7520,4433
8.7540,8017
8.7560,9314
8.7580,9874
8.7600,13779
8.7620,11666
8.7640,3040
8.7660,4737
8.7680,11410
8.7700,752
8.7720,2096
8.7740,18004
8.7760,17124
8.7780,2704
8.7800,16227
8.7820,13667
8.7840,1024
8.7860,11682
8.7880,6209
8.7900,480
8.7920,5249
8.7940,19684
8.7960,19076
8.7980,18052
8.8000,10114
8.8020,20116
8.8040,11746
8.8060,23733
8.8080,7361
8.8100,30311
8.8120,12178
8.8140,11490
8.8160,6321
8.8180,12194
8.8200,6449
8.8220,4353
8.8240,10930
8.8260,800
8.8280,3712
8.8300,8578
8.8320,7873
8.8340,4016
8.8360,3152
8.8380,1712
8.8400,3776
8.8420,752
8.8440,800
8.8460,9010
8.8480,608
8.8500,16307
8.8520,6337
8.8540,11538
8.8560,10530
8.8580,36312
8.8600,17796
8.8620,768
8.8640,560
8.8660,640
8.8680,528
8.8700,1312
8.8720,11522
8.8740,2448
8.8760,5345
8.8780,8177
8.8800,6177
8.8820,3376
8.8840,1104
8.8860,3440
8.8880,13075
8.8900,7057
8.8920,21461
8.8940,9618
8.8960,4737
8.8980,1472
8.9000,2608
8.9020,2704
8.9040,1952
8.9060,704
8.9080,25030
8.9100,1168
8.9120,6561
8.9140,1872
8.9160,8322
8.9180,8097
8.9200,1520
8.9220,848
8.9240,8770
8.9260,1376
8.9280,6241
8.9300,480
8.9320,6881
8.9340,12803
8.9360,25494
8.9380,4161
8.9400,11698
8.9420,7409
8.9440,9410
8.9460,2464
8.9480,720
8.9500,1184
8.9520,544
8.9540,2016
8.9560,4881
8.9580,848
8.9600,640
8.9620,1072
8.9640,6465
8.9660,15555
8.9680,7601
8.9700,6881
8.9720,1472
8.9740,20965
8.9760,1088
8.9780,11346
8.9800,8626
8.9820,5761
8.9840,9058
8.9860,32087
8.9880,3488
8.9900,1776
8.9920,12194
8.9940,13219
8.9960,320
8.9980,4401
9.0000,5873
9.0020,7873
9.0040,1776
9.0060,3808
9.0080,5841
9.0100,8850
9.0120,20677
9.0140,2496
9.0160,6977
9.0180,8738
9.0200,1488
9.0220,1472
9.0240,4080
9.0260,2560
9.0280,13875
9.0300,5681
9.0320,2064
9.0340,15667
9.0360,1616
9.0380,11698
9.0400,2192
9.0420,12611
9.0440,8530
9.0460,6289
9.0480,11042
9.0500,1968
9.0520,19396
9.0540,9538
9.0560,6033
9.0580,14211
9.0600,6833
9.0620,5857
9.0640,2608
9.0660,21925
9.0680,5777
9.0700,2752
9.0720,8113
9.0740,5265
9.0760,672
9.0780,32599
9.0800,8834
9.0820,3184
9.0840,6145
9.0860,10770
9.0880,1296
9.0900,15171
9.0920,2448
9.0940,2240
9.0960,15155
9.0980,13907
9.1000,5137
9.1020,4048
9.1040,9010
9.1060,18260
9.1080,1776
9.1100,2848
9.1120,7777
9.1140,3584
9.1160,5185
9.1180,1728
9.1200,1856
9.1220,3200
9.1240,5665
9.1260,9730
9.1280,432
9.1300,3776
9.1320,8177
9.1340,8466
9.1360,2704
9.1380,4961
9.1400,992
9.1420,3136
9.1440,7585
9.1460,560
9.1480,14019
9.1500,3024
9.1520,23829
9.1540,30535
9.1560,1536
9.1580,3392
9.1600,1024
9.1620,7441
9.1640,2448
9.1660,26006
9.1680,6481
9.1700,17300
9.1720,7841
9.1740,448
9.1760,14483
9.1780,8658
9.1800,6977
9.1820,2352
9.1840,4769
9.1860,416
9.1880,13731
9.1900,2784
9.1920,5329
9.1940,11778
9.1960,928
9.1980,576
9.2000,2416
9.2020,2896
9.2040,1888
9.2060,1296
9.2080,2560
9.2100,6977
9.2120,9874
9.2140,11138
9.2160,14531
9.2180,12851
9.2200,10194
9.2220,5329
9.2240,4064
9.2260,14867
9.2280,752
9.2300,4417
9.2320,672
9.2340,560
9.2360,4913
9.2380,2016
9.2400,31815
9.2420,4881
9.2440,12835
9.2460,6625
9.2480,4257
9.2500,2816
9.2520,10722
9.2540,3072
9.2560,912
9.2580,12371
9.2600,11906
9.2620,7009
9.2640,16612
9.2660,4737
9.2680,18228
9.2700,18260
9.2720,1344
9.2740,304
9.2760,9186
9.2780,2304
9.2800,3008
9.2820,14579
9.2840,3120
9.2860,3152
9.2880,6673
9.2900,2048
9.2920,12643
9.2940,784
9.2960,3344
9.2980,2832
9.3000,8802
9.3020,1824
9.3040,15971
9.3060,10034
9.3080,1600
9.3100,736
9.3120,18004
9.3140,11490
9.3160,3552
9.3180,560
9.3200,8786
9.3220,2240
9.3240,816
9.3260,1376
9.3280,13395
9.3300,6433
9.3320,17892
9.3340,4593
9.3360,12835
9.3380,13779
9.3400,576
9.3420,2192
9.3440,8097
9.3460,928
9.3480,9106
9.3500,6897
9.3520,1344
9.3540,2448
9.3560,848
9.3580,2112
9.3600,5761
9.3620,3040
9.3640,10114
9.3660,2656
9.3680,2400
9.3700,1472
9.3720,3552
9.3740,4929
9.3760,14211
9.3780,11010
9.3800,608
9.3820,816
9.3840,19252
9.3860,15779
9.3880,14307
9.3900,6385
9.3920,1616
9.3940,22085
9.3960,15635
9.3980,4689
9.4000,2752
9.4020,1040
9.4040,11106
9.4060,10562
9.4080,2096
9.4100,8802
9.4120,3008
9.4140,640
9.4160,5585
9.4180,7041
9.4200,14435
9.4220,7185
9.4240,5105
9.4260,912
9.4280,2112
9.4300,5057
9.4320,14051
9.4340,1040
9.4360,9170
9.4380,4481
9.4400,16868
9.4420,864
9.4440,19284
9.4460,8290
9.4480,1168
9.4500,1488
9.4520,272
9.4540,2064
9.4560,9858
9.4580,10450
9.4600,10834
9.4620,16227
9.4640,8978
9.4660,2752
9.4680,1280
9.4700,2384
9.4720,3248
9.4740,4865
9.4760,8242
9.4780,848
9.4800,5169
9.4820,1984
9.4840,17060
9.4860,11666
9.4880,1472
9.4900,28518
9.4920,24373
9.4940,11698
9.4960,29655
9.4980,2832
9.5000,1808
9.5020,13875
9.5040,9170
9.5060,12483
9.5080,1344
9.5100,240
9.5120,672
9.5140,368
9.5160,11650
9.5180,1792
9.5200,2736
9.5220,12515
9.5240,10658
9.5260,8290
9.5280,18452
9.5300,1280
9.5320,18724
9.5340,6529
9.5360,4865
9.5380,1792
9.5400,17156
9.5420,6337
9.5440,4705
9.5460,4369
9.5480,13731
9.5500,4545
9.5520,10194
9.5540,10642
9.5560,4369
9.5580,17204
9.5600,8354
9.5620,15651
9.5640,4769
9.5660,28182
9.5680,4257
9.5700,6113
9.5720,4609
9.5740,5905
9.5760,512
9.5780,7105
9.5800,2992
9.5820,14131
9.5840,1248
9.5860,4785
9.5880,1584
9.5900,1184
9.5920,1040
9.5940,4048
9.5960,8866
9.5980,1488
9.6000,3104
9.6020,11810
9.6040,9394
9.6060,2640
9.6080,1056
9.6100,5089
9.6120,2080
9.6140,2960
9.6160,8978
9.6180,992
9.6200,432
9.6220,2992
9.6240,1072
9.6260,9954
9.6280,4385
9.6300,12723
9.6320,3968
9.6340,10114
9.6360,16436
9.6380,11730
9.6400,14803
9.6420,768
9.6440,7569
9.6460,13091
9.6480,9506
9.6500,2880
9.6520,5777
9.6540,3632
9.6560,18884
9.6580,8177
9.6600,15091
9.6620,16500
9.6640,9922
9.6660,10274
9.6680,3952
9.6700,2848
9.6720,1680
9.6740,10050
9.6760,2144
9.6780,2496
9.6800,15555
9.6820,864
9.6840,784
9.6860,5585
9.6880,1216
9.6900,8914
9.6920,7009
9.6940,2192
9.6960,3328
9.6980,1632
9.7000,5041
9.7020,864
9.7040,8129
9.7060,12323
9.7080,2352
9.7100,4449
9.7120,19300
9.7140,16468
9.7160,6753
9.7180,8450
9.7200,18276
9.7220,3984
9.7240,736
9.7260,2736
9.7280,9698
9.7300,3504
9.7320,1456
9.7340,4545
9.7360,6945
9.7380,6673
9.7400,2800
9.7420,1328
9.7440,1520
9.7460,9762
9.7480,2256
9.7500,17540
9.7520,2240
9.7540,8097
9.7560,7697
9.7580,656
9.7600,1680
9.7620,2048
9.7640,4000
9.7660,14755
9.7680,4129
9.7700,1504
9.7720,4032
9.7740,8161
9.7760,10562
9.7780,3760
9.7800,12483
9.7820,7473
9.7840,2800
9.7860,3104
9.7880,14595
9.7900,1184
9.7920,10834
9.7940,18452
9.7960,1952
9.7980,816
9.8000,2448
9.8020,15139
9.8040,608
9.8060,576
9.8080,5905
9.8100,11522
9.8120,3920
9.8140,3536
9.8160,1152
9.8180,3856
9.8200,1632
9.8220,8482
9.8240,11170
9.8260,3584
9.8280,2128
9.8300,2144
9.8320,11602
9.8340,10930
9.8360,2896
9.8380,1952
9.8400,18708
9.8420,4561
9.8440,2736
9.8460,14227
9.8480,6865
9.8500,8161
9.8520,2688
9.8540,5569
9.8560,9346
9.8580,720
9.8600,3104
9.8620,14723
9.8640,13843
9.8660,12274
9.8680,1520
9.8700,5825
9.8720,656
9.8740,6753
9.8760,720
9.8780,3584
9.8800,2192
9.8820,2176
9.8840,9554
9.8860,560
9.8880,5169
9.8900,8498
9.8920,2560
9.8940,944
9.8960,10802
9.8980,192
9.9000,752
9.9020,1344
9.9040,6273
9.9060,2096
9.9080,832
9.9100,12723
9.9120,5217
9.9140,2960
9.9160,11442
9.9180,1568
9.9200,13187
9.9220,7489
9.9240,5601
9.9260,5793
9.9280,1952
9.9300,4561
9.9320,5681
9.9340,4000
9.9360,13475
9.9380,6145
9.9400,9314
9.9420,4129
9.9440,3792
9.9460,11314
9.9480,576
9.9500,14163
9.9520,736
9.9540,13715
9.9560,10402
9.9580,11698
9.9600,592
9.9620,1440
9.9640,656
9.9660,2368
9.9680,3248
9.9700,1024
9.9720,992
9.9740,800
9.9760,7185
9.9780,9346
9.9800,3216
9.9820,560
9.9840,2720
9.9860,896
9.9880,8033
9.9900,7985
9.9920,2848
9.9940,2736
9.9960,896
9.9980,4433
10.0000,6465
10.0020,2832
10.0040,1552
10.0060,6737
10.0080,9442
10.0100,400
10.0120,8258
10.0140,1216
10.0160,3520
10.0180,1488
10.0200,7089
10.0220,2496
10.0240,1120
10.0260,17188
10.0280,448
10.0300,736
10.0320,18180
10.0340,16788
10.0360,1104
10.0380,7505
10.0400,464
10.0420,592
10.0440,7569
10.0460,10146
10.0480,5521
10.0500,1216
10.0520,912
10.0540,3504
10.0560,9266
10.0580,1712
10.0600,16436
10.0620,18004
10.0640,20196
10.0660,2224
10.0680,944
10.0700,12595
10.0720,6289
10.0740,17364
10.0760,15235
10.0780,4417
10.0800,2304
10.0820,3040
10.0840,912
10.0860,11218
10.0880,8578
10.0900,1296
10.0920,3968
10.0940,304
10.0960,6577
10.0980,5137
10.1000,8306
10.1020,1488
10.1040,12531
10.1060,1104
10.1080,7041
10.1100,4689
10.1120,14883
10.1140,576
10.1160,15203
10.1180,6193
10.1200,2624
10.1220,4129
10.1240,2880
10.1260,13187
10.1280,4016
10.1300,6145
10.1320,7041
10.1340,816
10.1360,8722
10.1380,11506
10.1400,1136
10.1420,16772
10.1440,1296
10.1460,8610
10.1480,1376
10.1500,3376
10.1520,752
10.1540,848
10.1560,2880
10.1580,1616
10.1600,2320
10.1620,2288
10.1640,11026
10.1660,576
10.1680,9666
10.1700,2000
10.1720,4993
10.1740,352
10.1760,7713
10.1780,3936
10.1800,2528
10.1820,5441
10.1840,6273
10.1860,8450
10.1880,1936
10.1900,832
10.1920,5217
10.1940,608
10.1960,6161
10.1980,1344
10.2000,1200
10.2020,768
10.2040,480
10.2060,1040
10.2080,12323
10.2100,14483
10.2120,7025
10.2140,9410
10.2160,6689
10.2180,4529
10.2200,1216
10.2220,1872
10.2240,960
10.2260,1280
10.2280,1200
10.2300,9170
10.2320,1408
10.2340,12435
10.2360,1472
10.2380,9298
10.2400,2080
10.2420,6625
10.2440,8802
10.2460,832
10.2480,7681
10.2500,7057
10.2520,3616
10.2540,6337
10.2560,1456
10.2580,928
10.2600,1936
10.2620,976
10.2640,512
10.2660,6577
10.2680,3232
10.2700,1552
10.2720,4833
10.2740,7185
10.2760,3328
10.2780,8882
10.2800,960
10.2820,1504
10.2840,1584
10.2860,1424
10.2880,1712
10.2900,768
10.2920,480
10.2940,6593
10.2960,1936
10.2980,736
10.3000,4369
10.3020,6849
10.3040,352
10.3060,672
10.3080,19524
10.3100,896
10.3120,6481
10.3140,6321
10.3160,4369
10.3180,512
10.3200,784
10.3220,6897
10.3240,528
10.3260,3856
10.3280,3248
10.3300,3360
10.3320,976
10.3340,688
10.3360,9058
10.3380,816
10.3400,8177
10.3420,6449
10.3440,4481
10.3460,800
10.3480,4032
10.3500,1472
10.3520,768
10.3540,1200
10.3560,2176
10.3580,2736
10.3600,2352
10.3620,8226
10.3640,992
10.3660,256
10.3680,784
10.3700,6689
10.3720,7425
10.3740,6273
10.3760,832
10.3780,4817
10.3800,5601
10.3820,1184
10.3840,3072
10.3860,2512
10.3880,1632
10.3900,1424
10.3920,5345
10.3940,704
10.3960,560
10.3980,640
10.4000,2784
10.4020,2384
10.4040,464
10.4060,576
10.4080,624
10.4100,416
10.4120,688
10.4140,1552
10.4160,704
10.4180,848
10.4200,2944
10.4220,592
10.4240,576
10.4260,1280
10.4280,1968
10.4300,560
10.4320,1872
10.4340,4273
10.4360,1216
10.4380,544
10.4400,4177
10.4420,2560
10.4440,2432
10.4460,6081
10.4480,1232
10.4500,288
10.4520,928
10.4540,736
10.4560,8033
10.4580,3152
10.4600,896
10.4620,1360
10.4640,1408
10.4660,1760
10.4680,3504
10.4700,336
10.4720,1088
10.4740,5121
10.4760,2576
10.4780,816
10.4800,512
10.4820,576
10.4840,864
10.4860,3008
10.4880,4129
10.4900,1584
10.4920,1312
10.4940,672
10.4960,960
10.4980,2080
10.5000,21221
10.5020,18180
10.5040,2656
10.5060,848
10.5080,1440
10.5100,592
10.5120,768
10.5140,4833
10.5160,624
10.5180,432
10.5200,720
10.5220,3216
10.5240,352
10.5260,288
10.5280,560
10.5300,608
10.5320,768
10.5340,416
10.5360,1040
10.5380,656
10.5400,592
10.5420,3648
10.5440,1152
10.5460,1168
10.5480,784
10.5500,448
10.5520,1888
10.5540,816
10.5560,992
10.5580,2576
10.5600,544
10.5620,1568
10.5640,3600
10.5660,928
10.5680,896
10.5700,592
10.5720,1072
10.5740,448
10.5760,736
10.5780,2592
10.5800,688
10.5820,480
10.5840,3728
10.5860,608
10.5880,1024
10.5900,848
10.5920,224
10.5940,1104
10.5960,1088
10.5980,4785
10.6000,448
10.6020,1408
10.6040,848
10.6060,11602
10.6080,2160
10.6100,3088
10.6120,608
10.6140,768
10.6160,1360
10.6180,912
10.6200,688
10.6220,2144
10.6240,512
10.6260,1104
10.6280,3488
10.6300,688
10.6320,576
10.6340,288
10.6360,640
10.6380,2688
10.6400,928
10.6420,944
10.6440,720
10.6460,240
10.6480,2304
10.6500,3472
10.6520,432
10.6540,816
10.6560,2112
10.6580,720
10.6600,6465
10.6620,1056
10.6640,2448
10.6660,1184
10.6680,6401
10.6700,1520
10.6720,480
10.6740,2976
10.6760,2400
10.6780,3520
10.6800,1456
10.6820,400
10.6840,592
10.6860,448
10.6880,2752
10.6900,5313
10.6920,2080
10.6940,1312
10.6960,480
10.6980,1536
10.7000,1344
10.7020,688
10.7040,320
10.7060,720
10.7080,464
10.7100,1600
10.7120,1040
10.7140,3024
10.7160,1856
10.7180,1520
10.7200,1040
10.7220,400
10.7240,1072
10.7260,640
10.7280,480
10.7300,3200
10.7320,2400
10.7340,4929
10.7360,448
10.7380,1488
10.7400,6593
10.7420,496
10.7440,4064
10.7460,816
10.7480,2048
10.7500,640
10.7520,1440
10.7540,4705
10.7560,656
10.7580,2736
10.7600,6049
10.7620,4225
10.7640,3344
10.7660,2576
10.7680,6673
10.7700,1680
10.7720,1600
10.7740,720
10.7760,1072
10.7780,768
10.7800,784
10.7820,544
10.7840,384
10.7860,1552
10.7880,1536
10.7900,4433
10.7920,768
10.7940,400
10.7960,512
10.7980,928
10.8000,1808
10.8020,1824
10.8040,1456
10.8060,64
10.8080,800
10.8100,720
10.8120,1248
10.8140,656
10.8160,1664
10.8180,1104
10.8200,784
10.8220,608
10.8240,928
10.8260,1552
10.8280,1696
10.8300,336
10.8320,576
10.8340,208
10.8360,624
10.8380,2752
10.8400,1584
10.8420,1488
10.8440,736
10.8460,2144
10.8480,3008
10.8500,2112
10.8520,736
10.8540,4016
10.8560,4241
10.8580,1152
10.8600,1664
10.8620,688
10.8640,1360
10.8660,1216
10.8680,1168
10.8700,3920
10.8720,592
10.8740,3072
10.8760,2416
10.8780,7857
10.8800,592
10.8820,2480
10.8840,6113
10.8860,928
10.8880,880
10.8900,1232
10.8920,800
10.8940,2576
10.8960,768
10.8980,1504
10.9000,1088
10.9020,2896
10.9040,1920
10.9060,448
10.9080,1968
10.9100,800
10.9120,3472
10.9140,5169
10.9160,960
10.9180,1312
10.9200,592
10.9220,1024
10.9240,1552
10.9260,896
10.9280,992
10.9300,1408
10.9320,1312
10.9340,2432
10.9360,672
10.9380,1056
10.9400,1200
10.9420,944
10.9440,688
10.9460,768
10.9480,576
10.9500,688
10.9520,2272
10.9540,1680
10.9560,1040
10.9580,1200
10.9600,1392
10.9620,2048
10.9640,2640
10.9660,288
10.9680,416
10.9700,688
10.9720,688
10.9740,1136
10.9760,160
10.9780,656
10.9800,1408
10.9820,1488
10.9840,864
10.9860,944
10.9880,1424
10.9900,1152
10.9920,8001
10.9940,11090
10.9960,816
10.9980,592
11.0000,480
11.0020,512
11.0040,1584
11.0060,4080
11.0080,5441
11.0100,2912
11.0120,736
11.0140,1008
11.0160,704
11.0180,112
11.0200,528
11.0220,8370
11.0240,3344
11.0260,784
11.0280,560
11.0300,544
11.0320,2272
11.0340,896
11.0360,2320
11.0380,6625
11.0400,1088
11.0420,2768
11.0440,960
11.0460,528
11.0480,288
11.0500,448
11.0520,720
11.0540,2928
11.0560,768
11.0580,1152
11.0600,416
11.0620,352
11.0640,288
11.0660,704
11.0680,320
11.0700,352
11.0720,1424
11.0740,944
11.0760,544
11.0780,2224
11.0800,608
11.0820,528
11.0840,3008
11.0860,368
11.0880,608
11.0900,1232
11.0920,320
11.0940,176
11.0960,512
11.0980,8322
11.1000,10466
11.1020,320
11.1040,704
11.1060,3360
11.1080,1472
11.1100,7137
11.1120,14867
11.1140,22341
11.1160,3744
11.1180,1280
11.1200,864
11.1220,1984
11.1240,592
11.1260,944
11.1280,464
11.1300,3456
11.1320,512
11.1340,2304
11.1360,1184
11.1380,4753
11.1400,2624
11.1420,160
11.1440,2128
11.1460,128
11.1480,1648
11.1500,1664
11.1520,272
11.1540,1024
11.1560,1280
11.1580,816
11.1600,672
11.1620,1056
11.1640,64
11.1660,384
11.1680,912
11.1700,1568
11.1720,336
11.1740,192
11.1760,784
11.1780,1168
11.1800,960
11.1820,864
11.1840,2304
11.1860,560
11.1880,400
11.1900,2592
11.1920,256
11.1940,448
11.1960,1376
11.1980,976
11.2000,1072
11.2020,608
11.2040,2896
11.2060,1568
11.2080,688
11.2100,880
11.2120,832
11.2140,304
11.2160,1296
11.2180,576
11.2200,784
11.2220,672
11.2240,352
11.2260,384
11.2280,944
11.2300,448
11.2320,336
11.2340,592
11.2360,352
11.2380,1392
11.2400,608
11.2420,1968
11.2440,672
11.2460,464
11.2480,192
11.2500,384
11.2520,272
11.2540,1088
11.2560,480
11.2580,544
11.2600,736
11.2620,192
11.2640,592
11.2660,768
11.2680,800
11.2700,1040
11.2720,976
11.2740,784
11.2760,1504
11.2780,272
11.2800,1408
11.2820,576
11.2840,480
11.2860,672
11.2880,640
11.2900,640
11.2920,2560
11.2940,464
11.2960,352
11.2980,608
11.3000,3152
11.3020,528
11.3040,704
11.3060,624
11.3080,432
11.3100,608
11.3120,1968
11.3140,224
11.3160,864
11.3180,400
11.3200,240
11.3220,448
11.3240,400
11.3260,928
11.3280,784
11.3300,7057
11.3320,1040
11.3340,3488
11.3360,1600
11.3380,208
11.3400,704
11.3420,512
11.3440,1504
11.3460,6401
11.3480,5265
11.3500,3504
11.3520,3536
11.3540,496
11.3560,1104
11.3580,208
11.3600,816
11.3620,1312
11.3640,720
11.3660,544
11.3680,320
11.3700,1168
11.3720,6033
11.3740,8962
11.3760,5473
11.3780,3648
11.3800,10898
11.3820,2352
11.3840,768
11.3860,560
11.3880,944
11.3900,704
11.3920,224
11.3940,976
11.3960,768
11.3980,128
11.4000,4257
11.4020,1232
11.4040,2176
11.4060,1792
11.4080,848
11.4100,1504
11.4120,6177
11.4140,992
11.4160,2176
11.4180,576
11.4200,800
11.4220,896
11.4240,656
11.4260,336
11.4280,432
11.4300,1616
11.4320,1488
11.4340,464
11.4360,304
11.4380,2112
11.4400,640
11.4420,720
11.4440,400
11.4460,1888
11.4480,416
11.4500,816
11.4520,560
11.4540,1120
11.4560,576
11.4580,1872
11.4600,576
11.4620,1328
11.4640,240
11.4660,960
11.4680,3024
11.4700,320
11.4720,368
11.4740,272
11.4760,656
11.4780,928
11.4800,128
11.4820,2224
11.4840,928
11.4860,784
11.4880,464
11.4900,288
11.4920,448
11.4940,2976
11.4960,1888
11.4980,320
11.5000,320
11.5020,1536
11.5040,768
11.5060,528
11.5080,480
11.5100,800
11.5120,192
11.5140,2320
11.5160,1088
11.5180,512
11.5200,288
11.5220,592
11.5240,3008
11.5260,816
11.5280,864
11.5300,464
11.5320,672
11.5340,7569
11.5360,1280
11.5380,288
11.5400,1056
11.5420,448
11.5440,592
11.5460,704
11.5480,2320
11.5500,1984
11.5520,896
11.5540,528
11.5560,464
11.5580,880
11.5600,464
11.5620,1088
11.5640,208
11.5660,960
11.5680,544
11.5700,1696
11.5720,1136
11.5740,6289
11.5760,1200
11.5780,416
11.5800,848
11.5820,480
11.5840,640
11.5860,2640
11.5880,336
11.5900,208
11.5920,464
11.5940,1024
11.5960,464
11.5980,352
11.6000,512
11.6020,1184
11.6040,352
11.6060,2720
11.6080,6657
11.6100,800
11.6120,0
11.6140,1424
11.6160,640
11.6180,400
11.6200,144
11.6220,1232
11.6240,416
11.6260,1152
11.6280,12819
11.6300,6337
11.6320,3856
11.6340,1984
11.6360,1424
11.6380,1168
11.6400,720
11.6420,592
11.6440,976
11.6460,320
11.6480,1680
11.6500,480
11.6520,720
11.6540,576
11.6560,192
11.6580,2512
11.6600,4673
11.6620,784
11.6640,1808
11.6660,688
11.6680,672
11.6700,304
11.6720,416
11.6740,1664
11.6760,1280
11.6780,400
11.6800,1504
11.6820,832
11.6840,128
11.6860,3232
11.6880,1040
11.6900,944
11.6920,288
11.6940,192
11.6960,400
11.6980,176
11.7000,304
11.7020,1936
11.7040,496
11.7060,192
11.7080,880
11.7100,6897
11.7120,8113
11.7140,576
11.7160,160
11.7180,1104
11.7200,352
11.7220,528
11.7240,624
11.7260,928
11.7280,1824
11.7300,496
11.7320,544
11.7340,944
11.7360,448
11.7380,336
11.7400,608
11.7420,1184
11.7440,2352
11.7460,320
11.7480,5873
11.7500,4080
11.7520,1168
11.7540,528
11.7560,240
11.7580,2768
11.7600,640
11.7620,288
11.7640,336
11.7660,576
11.7680,656
11.7700,800
11.7720,672
11.7740,560
11.7760,4369
11.7780,1744
11.7800,272
11.7820,800
11.7840,704
11.7860,704
11.7880,480
11.7900,304
11.7920,2144
11.7940,176
11.7960,2992
11.7980,2720
11.8000,4225
11.8020,784
11.8040,336
11.8060,752
11.8080,432
11.8100,416
11.8120,784
11.8140,384
11.8160,288
11.8180,1328
11.8200,480
11.8220,736
11.8240,384
11.8260,320
11.8280,528
11.8300,1152
11.8320,1488
11.8340,320
11.8360,1216
11.8380,656
11.8400,672
11.8420,544
11.8440,224
11.8460,6321
11.8480,6545
11.8500,1664
11.8520,1008
11.8540,288
11.8560,1360
11.8580,288
11.8600,160
11.8620,2896
11.8640,672
11.8660,5969
11.8680,5729
11.8700,9890
11.8720,4529
11.8740,7201
11.8760,7217
11.8780,3888
11.8800,464
11.8820,416
11.8840,352
11.8860,704
11.8880,896
11.8900,336
11.8920,912
11.8940,1696
11.8960,3200
11.8980,2704
11.9000,6561
11.9020,768
11.9040,3888
11.9060,2192
11.9080,64
11.9100,768
11.9120,3360
11.9140,352
11.9160,448
11.9180,432
11.9200,3840
11.9220,1552
11.9240,256
11.9260,272
11.9280,1248
11.9300,14419
11.9320,2928
11.9340,288
11.9360,784
11.9380,560
11.9400,352
11.9420,336
11.9440,1024
11.9460,416
11.9480,48
11.9500,1024
11.9520,10450
11.9540,5537
11.9560,560
11.9580,560
11.9600,480
11.9620,512
11.9640,512
11.9660,1488
11.9680,368
11.9700,816
11.9720,320
11.9740,448
11.9760,1200
11.9780,656
11.9800,256
11.9820,432
11.9840,1424
11.9860,384
11.9880,96
11.9900,688
11.9920,1616
11.9940,480
11.9960,320
11.9980,416
12.0000,608
12.0020,288
12.0040,496
12.0060,432
12.0080,2192
12.0100,5249
12.0120,1008
12.0140,400
12.0160,848
12.0180,1040
12.0200,1152
12.0220,512
12.0240,480
12.0260,352
12.0280,1216
12.0300,560
12.0320,3488
12.0340,1744
12.0360,784
12.0380,1488
12.0400,1232
12.0420,672
12.0440,7073
12.0460,14067
12.0480,512
12.0500,1696
12.0520,3520
12.0540,944
12.0560,544
12.0580,768
12.0600,256
12.0620,832
12.0640,448
12.0660,1760
12.0680,1184
12.0700,576
12.0720,1488
12.0740,304
12.0760,976
12.0780,2368
12.0800,256
12.0820,240
12.0840,912
12.0860,384
12.0880,1344
12.0900,736
12.0920,352
12.0940,2608
12.0960,1104
12.0980,528
12.1000,512
12.1020,992
12.1040,12595
12.1060,8081
12.1080,560
12.1100,592
12.1120,592
12.1140,736
12.1160,3152
12.1180,1696
12.1200,592
12.1220,272
12.1240,1056
12.1260,464
12.1280,400
12.1300,1424
12.1320,832
12.1340,256
12.1360,336
12.1380,544
12.1400,848
12.1420,1712
12.1440,16
12.1460,2208
12.1480,912
12.1500,528
12.1520,480
12.1540,336
12.1560,208
12.1580,672
12.1600,224
12.1620,2368
12.1640,400
12.1660,2464
12.1680,2880
12.1700,544
12.1720,672
12.1740,12194
12.1760,6689
12.1780,7809
12.1800,1520
12.1820,2480
12.1840,1664
12.1860,544
12.1880,384
12.1900,640
12.1920,272
12.1940,1088
12.1960,992
12.1980,832
12.2000,1808
12.2020,1024
12.2040,640
12.2060,272
12.2080,784
12.2100,1008
12.2120,352
12.2140,2432
12.2160,2368
12.2180,256
12.2200,336
12.2220,400
12.2240,512
12.2260,864
12.2280,2672
12.2300,11906
12.2320,5329
12.2340,1712
12.2360,1664
12.2380,80
12.2400,208
12.2420,464
12.2440,288
12.2460,2624
12.2480,192
12.2500,960
12.2520,208
12.2540,480
12.2560,544
12.2580,544
12.2600,304
12.2620,2720
12.2640,5409
12.2660,7073
12.2680,448
12.2700,544
12.2720,384
12.2740,1280
12.2760,9890
12.2780,192
12.2800,960
12.2820,304
12.2840,160
12.2860,4257
12.2880,3216
12.2900,688
12.2920,832
12.2940,560
12.2960,256
12.2980,432
12.3000,960
12.3020,240
12.3040,768
12.3060,144
12.3080,464
12.3100,208
12.3120,384
12.3140,224
12.3160,464
12.3180,576
12.3200,784
12.3220,8722
12.3240,512
12.3260,2512
12.3280,4113
12.3300,400
12.3320,256
12.3340,1104
12.3360,1280
12.3380,816
12.3400,1424
12.3420,1040
12.3440,208
12.3460,1808
12.3480,640
12.3500,144
12.3520,432
12.3540,480
12.3560,352
12.3580,448
12.3600,272
12.3620,352
12.3640,2560
12.3660,448
12.3680,9874
12.3700,7057
12.3720,704
12.3740,960
12.3760,224
12.3780,2320
12.3800,480
12.3820,1456
12.3840,3248
12.3860,1120
12.3880,304
12.3900,384
12.3920,352
12.3940,416
12.3960,352
12.3980,96
12.4000,160
12.4020,512
12.4040,2864
12.4060,208
12.4080,1216
12.4100,320
12.4120,576
12.4140,3264
12.4160,736
12.4180,592
12.4200,320
12.4220,3248
12.4240,672
12.4260,944
12.4280,480
12.4300,496
12.4320,448
12.4340,656
12.4360,304
12.4380,2352
12.4400,656
12.4420,8578
12.4440,20116
12.4460,208
12.4480,784
12.4500,448
12.4520,960
12.4540,256
12.4560,416
12.4580,336
12.4600,336
12.4620,384
12.4640,1248
12.4660,576
12.4680,736
12.4700,3872
12.4720,688
12.4740,640
12.4760,736
12.4780,304
12.4800,464
12.4820,208
12.4840,3264
12.4860,352
12.4880,1296
12.4900,1152
12.4920,608
12.4940,2016
12.4960,80
12.4980,224
12.5000,816
12.5020,4321
12.5040,1504
12.5060,176
12.5080,432
12.5100,1216
12.5120,4321
12.5140,2752
12.5160,2704
12.5180,1088
12.5200,400
12.5220,256
12.5240,272
12.5260,2528
12.5280,1792
12.5300,448
12.5320,688
12.5340,512
12.5360,1552
12.5380,3328
12.5400,2912
12.5420,528
12.5440,0
12.5460,256
12.5480,288
12.5500,224
12.5520,656
12.5540,5201
12.5560,9250
12.5580,1680
12.5600,3104
12.5620,336
12.5640,480
12.5660,944
12.5680,544
12.5700,272
12.5720,464
12.5740,1920
12.5760,176
12.5780,336
12.5800,496
12.5820,3712
12.5840,2704
12.5860,560
12.5880,704
12.5900,544
12.5920,416
12.5940,384
12.5960,560
12.5980,1888
12.6000,2192
12.6020,480
12.6040,544
12.6060,656
12.6080,608
12.6100,576
12.6120,0
12.6140,1440
12.6160,1984
12.6180,560
12.6200,8242
12.6220,480
12.6240,624
12.6260,352
12.6280,704
12.6300,1552
12.6320,128
12.6340,1152
12.6360,592
12.6380,272
12.6400,864
12.6420,928
12.6440,4481
12.6460,640
12.6480,288
12.6500,448
12.6520,544
12.6540,2224
12.6560,1120
12.6580,464
12.6600,352
12.6620,256
12.6640,896
12.6660,672
12.6680,528
12.6700,304
12.6720,288
12.6740,608
12.6760,0
12.6780,176
12.6800,784
12.6820,224
12.6840,272
12.6860,528
12.6880,208
12.6900,400
12.6920,304
12.6940,592
12.6960,144
12.6980,672
12.7000,656
12.7020,288
12.7040,4289
12.7060,4289
12.7080,1200
12.7100,288
12.7120,4305
12.7140,10738
12.7160,2048
12.7180,2368
12.7200,544
12.7220,528
12.7240,256
12.7260,448
12.7280,256
12.7300,224
12.7320,448
12.7340,1280
12.7360,784
12.7380,384
12.7400,528
12.7420,7985
12.7440,1424
12.7460,352
12.7480,176
12.7500,272
12.7520,1088
12.7540,448
12.7560,0
12.7580,736
12.7600,288
12.7620,592
12.7640,624
12.7660,336
12.7680,2736
12.7700,608
12.7720,448
12.7740,592
12.7760,448
12.7780,576
12.7800,1472
12.7820,1568
12.7840,560
12.7860,720
12.7880,336
12.7900,672
12.7920,208
12.7940,400
12.7960,304
12.7980,192
12.8000,544
12.8020,320
12.8040,608
12.8060,1824
12.8080,864
12.8100,176
12.8120,336
12.8140,1104
12.8160,1728
12.8180,1712
12.8200,1056
12.8220,480
12.8240,176
12.8260,464
12.8280,1184
12.8300,2752
12.8320,576
12.8340,5009
12.8360,1248
12.8380,1536
12.8400,2528
12.8420,1632
12.8440,5937
12.8460,688
12.8480,560
12.8500,480
12.8520,480
12.8540,128
12.8560,288
12.8580,240
12.8600,224
12.8620,1520
12.8640,288
12.8660,5153
12.8680,1936
12.8700,400
12.8720,160
12.8740,304
12.8760,672
12.8780,464
12.8800,800
12.8820,816
12.8840,256
12.8860,320
12.8880,272
12.8900,848
12.8920,5201
12.8940,1712
12.8960,304
12.8980,576
12.9000,720
12.9020,416
12.9040,1488
12.9060,592
12.9080,656
12.9100,1456
12.9120,9746
12.9140,2464
12.9160,192
12.9180,1376
12.9200,4945
12.9220,4801
12.9240,3520
12.9260,2384
12.9280,544
12.9300,400
12.9320,4577
12.9340,1680
12.9360,432
12.9380,944
12.9400,672
12.9420,4032
12.9440,1632
12.9460,1168
12.9480,288
12.9500,320
12.9520,224
12.9540,384
12.9560,1008
12.9580,528
12.9600,528
12.9620,13907
12.9640,5009
12.9660,1072
12.9680,1104
12.9700,464
12.9720,528
12.9740,2352
12.9760,832
12.9780,1728
12.9800,560
12.9820,656
12.9840,2720
12.9860,464
12.9880,320
12.9900,432
12.9920,1920
12.9940,336
12.9960,512
12.9980,480
13.0000,176
13.0020,784
13.0040,656
13.0060,848
13.0080,1088
13.0100,608
13.0120,1408
13.0140,304
13.0160,544
13.0180,240
13.0200,528
13.0220,2832
13.0240,3328
13.0260,768
13.0280,1840
13.0300,368
13.0320,544
13.0340,512
13.0360,384
13.0380,944
13.0400,1216
13.0420,2192
13.0440,1184
13.0460,608
13.0480,736
13.0500,256
13.0520,3776
13.0540,6449
13.0560,432
13.0580,1088
13.0600,208
13.0620,576
13.0640,544
13.0660,672
13.0680,544
13.0700,560
13.0720,80
13.0740,736
13.0760,1088
13.0780,384
13.0800,528
13.0820,2480
13.0840,960
13.0860,4289
13.0880,3296
13.0900,320
13.0920,592
13.0940,256
13.0960,448
13.0980,480
13.1000,256
13.1020,80
13.1040,176
13.1060,640
13.1080,1520
13.1100,672
13.1120,432
13.1140,2496
13.1160,4897
13.1180,2784
13.1200,16
13.1220,336
13.1240,320
13.1260,4625
13.1280,928
13.1300,7201
13.1320,608
13.1340,432
13.1360,128
13.1380,800
13.1400,640
13.1420,544
13.1440,176
13.1460,6785
13.1480,304
13.1500,464
13.1520,2224
13.1540,384
13.1560,640
13.1580,944
13.1600,304
13.1620,384
13.1640,288
13.1660,4177
13.1680,8978
13.1700,752
13.1720,224
13.1740,400
13.1760,256
13.1780,2112
13.1800,480
13.1820,304
13.1840,1280
13.1860,192
13.1880,512
13.1900,192
13.1920,800
13.1940,2336
13.1960,832
13.1980,448
13.2000,400
13.2020,320
13.2040,320
13.2060,528
13.2080,272
13.2100,512
13.2120,288
13.2140,1536
13.2160,576
13.2180,768
13.2200,496
13.2220,448
13.2240,704
13.2260,3296
13.2280,976
13.2300,848
13.2320,528
13.2340,640
13.2360,144
13.2380,272
13.2400,656
13.2420,272
13.2440,832
13.2460,1968
13.2480,1856
13.2500,1168
13.2520,480
13.2540,288
13.2560,672
13.2580,208
13.2600,768
13.2620,1168
13.2640,320
13.2660,8466
13.2680,2816
13.2700,3088
13.2720,1408
13.2740,512
13.2760,528
13.2780,1248
13.2800,576
13.2820,1024
13.2840,6737
13.2860,13619
13.2880,688
13.2900,928
13.2920,336
13.2940,304
13.2960,592
13.2980,1376
13.3000,512
13.3020,384
13.3040,704
13.3060,864
13.3080,816
13.3100,192
13.3120,672
13.3140,528
13.3160,608
13.3180,352
13.3200,5729
13.3220,2640
13.3240,1904
13.3260,1680
13.3280,1408
13.3300,704
13.3320,992
13.3340,1728
13.3360,3104
13.3380,1488
13.3400,3024
13.3420,1104
13.3440,864
13.3460,672
13.3480,1168
13.3500,2224
13.3520,1360
13.3540,1744
13.3560,1776
13.3580,272
13.3600,416
13.3620,464
13.3640,1440
13.3660,1760
13.3680,1760
13.3700,1488
13.3720,656
13.3740,544
13.3760,960
13.3780,1216
13.3800,736
13.3820,1328
13.3840,800
13.3860,528
13.3880,928
13.3900,1088
13.3920,976
13.3940,1056
13.3960,944
13.3980,752
13.4000,160
13.4020,640
13.4040,224
13.4060,784
13.4080,528
13.4100,5649
13.4120,2288
13.4140,1008
13.4160,544
13.4180,544
13.4200,592
13.4220,1296
13.4240,256
13.4260,400
13.4280,736
13.4300,640
13.4320,1792
13.4340,256
13.4360,928
13.4380,960
13.4400,400
13.4420,208
13.4440,272
13.4460,1312
13.4480,496
13.4500,304
13.4520,432
13.4540,816
13.4560,704
13.4580,640
13.4600,336
13.4620,464
13.4640,608
13.4660,288
13.4680,6881
13.4700,464
13.4720,960
13.4740,288
13.4760,1456
13.4780,400
13.4800,272
13.4820,944
13.4840,704
13.4860,224
13.4880,704
13.4900,720
13.4920,2560
13.4940,6561
13.4960,1072
13.4980,832
13.5000,1040
13.5020,1568
13.5040,464
13.5060,496
13.5080,816
13.5100,416
13.5120,688
13.5140,944
13.5160,320
13.5180,352
13.5200,560
13.5220,688
13.5240,784
13.5260,208
13.5280,2464
13.5300,96
13.5320,5441
13.5340,1952
13.5360,3504
13.5380,160
13.5400,544
13.5420,288
13.5440,960
13.5460,640
13.5480,608
13.5500,592
13.5520,320
13.5540,848
13.5560,336
13.5580,3376
13.5600,272
13.5620,48
13.5640,368
13.5660,176
13.5680,352
13.5700,656
13.5720,832
13.5740,1920
13.5760,800
13.5780,8274
13.5800,10050
13.5820,1456
13.5840,944
13.5860,416
13.5880,768
13.5900,1312
13.5920,832
13.5940,304
13.5960,320
13.5980,2064
13.6000,1616
13.6020,960
13.6040,208
13.6060,7057
13.6080,1152
13.6100,320
13.6120,480
13.6140,1056
13.6160,1040
13.6180,3168
13.6200,1600
13.6220,544
13.6240,448
13.6260,432
13.6280,192
13.6300,1360
13.6320,2336
13.6340,512
13.6360,608
13.6380,704
13.6400,512
13.6420,5153
13.6440,1680
13.6460,384
13.6480,992
13.6500,608
13.6520,560
13.6540,544
13.6560,2064
13.6580,576
13.6600,400
13.6620,416
13.6640,304
13.6660,528
13.6680,2864
13.6700,416
13.6720,992
13.6740,528
13.6760,800
13.6780,448
13.6800,848
13.6820,464
13.6840,1312
13.6860,352
13.6880,944
13.6900,608
13.6920,336
13.6940,320
13.6960,288
13.6980,576
13.7000,1280
13.7020,416
13.7040,912
13.7060,768
13.7080,304
13.7100,864
13.7120,1232
13.7140,704
13.7160,544
13.7180,2480
13.7200,4673
13.7220,640
13.7240,176
13.7260,640
13.7280,9490
13.7300,1888
13.7320,256
13.7340,272
13.7360,336
13.7380,1360
13.7400,608
13.7420,592
13.7440,384
13.7460,208
13.7480,336
13.7500,544
13.7520,1824
13.7540,2480
13.7560,7697
13.7580,1552
13.7600,288
13.7620,12835
13.7640,3456
13.7660,128
13.7680,448
13.7700,896
13.7720,496
13.7740,576
13.7760,160
13.7780,416
13.7800,464
13.7820,256
13.7840,416
13.7860,1120
13.7880,544
13.7900,544
13.7920,144
13.7940,512
13.7960,608
13.7980,3216
13.8000,1200
13.8020,400
13.8040,176
13.8060,400
13.8080,672
13.8100,336
13.8120,992
13.8140,512
13.8160,672
13.8180,384
13.8200,560
13.8220,272
13.8240,432
13.8260,336
13.8280,864
13.8300,1024
13.8320,2784
13.8340,496
13.8360,448
13.8380,384
13.8400,736
13.8420,304
13.8440,160
13.8460,528
13.8480,448
13.8500,592
13.8520,1376
13.8540,3520
13.8560,656
13.8580,1120
13.8600,576
13.8620,1184
13.8640,2192
13.8660,1472
13.8680,1376
13.8700,1200
13.8720,624
13.8740,1584
13.8760,928
13.8780,480
13.8800,512
13.8820,608
13.8840,320
13.8860,208
13.8880,448
13.8900,656
13.8920,1040
13.8940,624
13.8960,1360
13.8980,4000
13.9000,608
13.9020,1280
13.9040,400
13.9060,720
13.9080,560
13.9100,32
13.9120,512
13.9140,512
13.9160,160
13.9180,6801
13.9200,14483
13.9220,576
13.9240,512
13.9260,320
13.9280,320
13.9300,640
13.9320,320
13.9340,1328
13.9360,800
13.9380,432
13.9400,2256
13.9420,4113
13.9440,912
13.9460,576
13.9480,192
13.9500,384
13.9520,768
13.9540,576
13.9560,160
13.9580,496
13.9600,736
13.9620,800
13.9640,1632
13.9660,288
13.9680,288
13.9700,2592
13.9720,1056
13.9740,560
13.9760,272
13.9780,400
13.9800,1824
13.9820,480
13.9840,400
13.9860,1184
13.9880,336
13.9900,48
13.9920,976
13.9940,1808
13.9960,832
13.9980,1600
14.0000,672
14.0020,832
14.0040,736
14.0060,960
14.0080,592
14.0100,272
14.0120,336
14.0140,208
14.0160,480
14.0180,384
14.0200,336
14.0220,480
14.0240,128
14.0260,528
14.0280,192
14.0300,608
14.0320,1728
14.0340,480
14.0360,512
14.0380,288
14.0400,400
14.0420,352
14.0440,400
14.0460,208
14.0480,576
14.0500,48
14.0520,3584
14.0540,3744
14.0560,2864
14.0580,2096
14.0600,800
14.0620,448
14.0640,3088
14.0660,1088
14.0680,128
14.0700,1200
14.0720,736
14.0740,592
14.0760,208
14.0780,2080
14.0800,368
14.0820,1312
14.0840,1232
14.0860,512
14.0880,1088
14.0900,1056
14.0920,528
14.0940,976
14.0960,240
14.0980,720
14.1000,400
14.1020,512
14.1040,400
14.1060,2656
14.1080,6273
14.1100,8113
14.1120,592
14.1140,1024
14.1160,4113
14.1180,4016
14.1200,1360
14.1220,400
14.1240,2512
14.1260,1664
14.1280,832
14.1300,304
14.1320,272
14.1340,432
14.1360,352
14.1380,208
14.1400,1216
14.1420,5521
14.1440,1360
14.1460,752
14.1480,352
14.1500,608
14.1520,192
14.1540,656
14.1560,1536
14.1580,320
14.1600,1072
14.1620,576
14.1640,560
14.1660,432
14.1680,432
14.1700,720
14.1720,320
14.1740,304
14.1760,1072
14.1780,400
14.1800,704
14.1820,416
14.1840,640
14.1860,736
14.1880,912
14.1900,816
14.1920,416
14.1940,496
14.1960,224
14.1980,448
14.2000,720
14.2020,512
14.2040,384
14.2060,336
14.2080,176
14.2100,224
14.2120,2128
14.2140,1840
14.2160,2160
14.2180,576
14.2200,224
14.2220,928
14.2240,560
14.2260,576
14.2280,1792
14.2300,3520
14.2320,672
14.2340,12242
14.2360,8161
14.2380,2864
14.2400,304
14.2420,528
14.2440,416
14.2460,592
14.2480,5041
14.2500,352
14.2520,832
14.2540,2512
14.2560,1088
14.2580,912
14.2600,1600
14.2620,592
14.2640,816
14.2660,704
14.2680,768
14.2700,496
14.2720,464
14.2740,400
14.2760,576
14.2780,800
14.2800,464
14.2820,256
14.2840,576
14.2860,400
14.2880,576
14.2900,704
14.2920,480
14.2940,2448
14.2960,784
14.2980,384
14.3000,320
14.3020,448
14.3040,928
14.3060,1504
14.3080,240
14.3100,832
14.3120,656
14.3140,416
14.3160,448
14.3180,352
14.3200,272
14.3220,352
14.3240,688
14.3260,1472
14.3280,144
14.3300,704
14.3320,1760
14.3340,2416
14.3360,224
14.3380,2048
14.3400,1072
14.3420,208
14.3440,1088
14.3460,896
14.3480,352
14.3500,576
14.3520,304
14.3540,752
14.3560,912
14.3580,3488
14.3600,6337
14.3620,528
14.3640,208
14.3660,528
14.3680,768
14.3700,304
14.3720,512
14.3740,352
14.3760,448
14.3780,768
14.3800,464
14.3820,1200
14.3840,544
14.3860,848
14.3880,224
14.3900,400
14.3920,384
14.3940,288
14.3960,1328
14.3980,736
14.4000,640
14.4020,288
14.4040,592
14.4060,432
14.4080,384
14.4100,848
14.4120,640
14.4140,656
14.4160,272
14.4180,672
14.4200,2544
14.4220,464
14.4240,672
14.4260,1280
14.4280,448
14.4300,5265
14.4320,3216
14.4340,528
14.4360,784
14.4380,496
14.4400,1264
14.4420,1024
14.4440,672
14.4460,80
14.4480,320
14.4500,336
14.4520,528
14.4540,704
14.4560,592
14.4580,688
14.4600,352
14.4620,592
14.4640,416
14.4660,448
14.4680,3264
14.4700,288
14.4720,864
14.4740,512
14.4760,1872
14.4780,336
14.4800,3712
14.4820,3840
14.4840,288
14.4860,688
14.4880,336
14.4900,416
14.4920,320
14.4940,736
14.4960,304
14.4980,656
14.5000,96
14.5020,0
14.5040,704
14.5060,352
14.5080,128
14.5100,736
14.5120,288
14.5140,224
14.5160,352
14.5180,224
14.5200,1024
14.5220,864
14.5240,896
14.5260,480
14.5280,352
14.5300,2000
14.5320,736
14.5340,1888
14.5360,416
14.5380,192
14.5400,272
14.5420,304
14.5440,160
14.5460,4321
14.5480,2544
14.5500,480
14.5520,512
14.5540,592
14.5560,336
14.5580,496
14.5600,288
14.5620,496
14.5640,288
14.5660,208
14.5680,256
14.5700,448
14.5720,688
14.5740,528
14.5760,992
14.5780,5521
14.5800,1456
14.5820,1104
14.5840,240
14.5860,192
14.5880,384
14.5900,1072
14.5920,320
14.5940,720
14.5960,736
14.5980,384
14.6000,448
14.6020,1616
14.6040,2816
14.6060,2496
14.6080,336
14.6100,288
14.6120,1344
14.6140,304
14.6160,1808
14.6180,608
14.6200,576
14.6220,944
14.6240,352
14.6260,432
14.6280,3168
14.6300,432
14.6320,688
14.6340,3472
14.6360,1920
14.6380,256
14.6400,416
14.6420,160
14.6440,448
14.6460,704
14.6480,416
14.6500,672
14.6520,304
14.6540,768
14.6560,160
14.6580,1120
14.6600,720
14.6620,416
14.6640,2336
14.6660,1584
14.6680,576
14.6700,400
14.6720,944
14.6740,480
14.6760,656
14.6780,1360
14.6800,528
14.6820,528
14.6840,416
14.6860,176
14.6880,384
14.6900,464
14.6920,1296
14.6940,592
14.6960,304
14.6980,576
14.7000,400
14.7020,736
14.7040,512
14.7060,80
14.7080,864
14.7100,432
14.7120,3552
14.7140,464
14.7160,784
14.7180,1056
14.7200,800
14.7220,544
14.7240,5601
14.7260,608
14.7280,272
14.7300,736
14.7320,1088
14.7340,464
14.7360,592
14.7380,608
14.7400,352
14.7420,1232
14.7440,400
14.7460,1088
14.7480,304
14.7500,1936
14.7520,1616
14.7540,512
14.7560,704
14.7580,576
14.7600,496
14.7620,6049
14.7640,3888
14.7660,4577
14.7680,368
14.7700,864
14.7720,832
14.7740,1760
14.7760,1056
14.7780,0
14.7800,288
14.7820,464
14.7840,384
14.7860,288
14.7880,64
14.7900,256
14.7920,320
14.7940,320
14.7960,736
14.7980,480
14.8000,592
14.8020,672
14.8040,976
14.8060,256
14.8080,304
14.8100,2848
14.8120,592
14.8140,352
14.8160,640
14.8180,304
14.8200,176
14.8220,400
14.8240,720
14.8260,208
14.8280,4817
14.8300,2240
14.8320,5345
14.8340,6289
14.8360,352
14.8380,496
14.8400,592
14.8420,320
14.8440,496
14.8460,304
14.8480,400
14.8500,1216
14.8520,432
14.8540,544
14.8560,752
14.8580,256
14.8600,5185
14.8620,368
14.8640,1760
14.8660,352
14.8680,672
14.8700,128
14.8720,1056
14.8740,160
14.8760,992
14.8780,304
14.8800,1152
14.8820,800
14.8840,320
14.8860,560
14.8880,336
14.8900,592
14.8920,2256
14.8940,1664
14.8960,208
14.8980,1072
14.9000,272
14.9020,2896
14.9040,352
14.9060,1120
14.9080,1952
14.9100,1792
14.9120,784
14.9140,512
14.9160,800
14.9180,256
14.9200,336
14.9220,336
14.9240,2064
14.9260,960
14.9280,80
14.9300,1200
14.9320,432
14.9340,224
14.9360,864
14.9380,592
14.9400,576
14.9420,1920
14.9440,432
14.9460,352
14.9480,448
14.9500,720
14.9520,528
14.9540,336
14.9560,560
14.9580,320
14.9600,560
14.9620,768
14.9640,640
14.9660,304
14.9680,288
14.9700,272
14.9720,656
14.9740,704
14.9760,1280
14.9780,976
14.9800,688
14.9820,240
14.9840,480
14.9860,640
14.9880,768
14.9900,448
14.9920,352
14.9940,96
14.9960,480
14.9980,128
15.0000,480
15.0020,0
15.0040,560
15.0060,800
15.0080,2624
15.0100,416
15.0120,736
15.0140,512
15.0160,704
15.0180,512
15.0200,224
15.0220,528
15.0240,224
15.0260,720
15.0280,432
15.0300,416
15.0320,368
15.0340,432
15.0360,272
15.0380,288
15.0400,272
15.0420,352
15.0440,2048
15.0460,416
15.0480,512
15.0500,352
15.0520,272
15.0540,448
15.0560,656
15.0580,4737
15.0600,3344
15.0620,256
15.0640,3040
15.0660,4401
15.0680,848
15.0700,1600
15.0720,896
15.0740,960
15.0760,1424
15.0780,304
15.0800,720
15.0820,512
15.0840,672
15.0860,784
15.0880,576
15.0900,448
15.0920,560
15.0940,1008
15.0960,1568
15.0980,784
15.1000,144
15.1020,128
15.1040,608
15.1060,1216
15.1080,304
15.1100,432
15.1120,336
15.1140,3056
15.1160,688
15.1180,496
15.1200,1632
15.1220,656
15.1240,1632
15.1260,336
15.1280,736
15.1300,288
15.1320,992
15.1340,432
15.1360,576
15.1380,1216
15.1400,464
15.1420,944
15.1440,1104
15.1460,544
15.1480,1600
15.1500,400
15.1520,976
15.1540,896
15.1560,4369
15.1580,6305
15.1600,464
15.1620,1088
15.1640,848
15.1660,784
15.1680,608
15.1700,368
15.1720,496
15.1740,144
15.1760,784
15.1780,992
15.1800,288
15.1820,704
15.1840,432
15.1860,688
15.1880,736
15.1900,384
15.1920,992
15.1940,304
15.1960,2288
15.1980,944
15.2000,608
15.2020,288
15.2040,592
15.2060,816
15.2080,352
15.2100,416
15.2120,560
15.2140,1424
15.2160,400
15.2180,592
15.2200,400
15.2220,544
15.2240,16
15.2260,304
15.2280,2560
15.2300,160
15.2320,560
15.2340,640
15.2360,848
15.2380,944
15.2400,864
15.2420,352
15.2440,4625
15.2460,976
15.2480,848
15.2500,576
15.2520,464
15.2540,272
15.2560,416
15.2580,592
15.2600,576
15.2620,416
15.2640,816
15.2660,288
15.2680,592
15.2700,8706
15.2720,3456
15.2740,704
15.2760,784
15.2780,688
15.2800,544
15.2820,656
15.2840,176
15.2860,400
15.2880,400
15.2900,176
15.2920,1456
15.2940,256
15.2960,144
15.2980,544
15.3000,400
15.3020,640
15.3040,656
15.3060,656
15.3080,560
15.3100,1024
15.3120,384
15.3140,512
15.3160,512
15.3180,544
15.3200,464
15.3220,320
15.3240,208
15.3260,1328
15.3280,2448
15.3300,352
15.3320,1936
15.3340,448
15.3360,752
15.3380,336
15.3400,608
15.3420,432
15.3440,688
15.3460,208
15.3480,512
15.3500,224
15.3520,688
15.3540,512
15.3560,336
15.3580,336
15.3600,1152
15.3620,768
15.3640,272
15.3660,448
15.3680,224
15.3700,288
15.3720,864
15.3740,64
15.3760,320
15.3780,720
15.3800,800
15.3820,256
15.3840,352
15.3860,736
15.3880,224
15.3900,432
15.3920,256
15.3940,432
15.3960,1552
15.3980,448
15.4000,336
15.4020,320
15.4040,192
15.4060,672
15.4080,128
15.4100,432
15.4120,512
15.4140,784
15.4160,336
15.4180,208
15.4200,560
15.4220,6433
15.4240,1280
15.4260,576
15.4280,320
15.4300,192
15.4320,240
15.4340,432
15.4360,480
15.4380,320
15.4400,256
15.4420,4817
15.4440,448
15.4460,3808
15.4480,464
15.4500,1984
15.4520,784
15.4540,432
15.4560,1344
15.4580,592
15.4600,1632
15.4620,1168
15.4640,1232
15.4660,512
15.4680,400
15.4700,1232
15.4720,736
15.4740,912
15.4760,272
15.4780,1904
15.4800,624
15.4820,1152
15.4840,320
15.4860,192
15.4880,416
15.4900,160
15.4920,288
15.4940,432
15.4960,832
15.4980,432
15.5000,304
15.5020,608
15.5040,592
15.5060,1328
15.5080,224
15.5100,2096
15.5120,928
15.5140,512
15.5160,512
15.5180,288
15.5200,704
15.5220,1104
15.5240,784
15.5260,608
15.5280,720
15.5300,272
15.5320,736
15.5340,336
15.5360,896
15.5380,768
15.5400,3024
15.5420,3552
15.5440,432
15.5460,2464
15.5480,2112
15.5500,1440
15.5520,656
15.5540,4865
15.5560,2336
15.5580,928
15.5600,352
15.5620,528
15.5640,432
15.5660,816
15.5680,384
15.5700,464
15.5720,704
15.5740,384
15.5760,384
15.5780,432
15.5800,816
15.5820,384
15.5840,528
15.5860,416
15.5880,672
15.5900,448
15.5920,864
15.5940,3472
15.5960,1056
15.5980,4305
15.6000,3792
15.6020,912
15.6040,608
15.6060,720
15.6080,528
15.6100,448
15.6120,528
15.6140,400
15.6160,3616
15.6180,1056
15.6200,272
15.6220,656
15.6240,176
15.6260,432
15.6280,304
15.6300,720
15.6320,560
15.6340,192
15.6360,208
15.6380,464
15.6400,416
15.6420,368
15.6440,656
15.6460,1040
15.6480,576
15.6500,416
15.6520,336
15.6540,896
15.6560,944
15.6580,2000
15.6600,5809
15.6620,592
15.6640,1072
15.6660,1248
15.6680,576
15.6700,352
15.6720,784
15.6740,2080
15.6760,368
15.6780,384
15.6800,224
15.6820,336
15.6840,384
15.6860,272
15.6880,528
15.6900,1152
15.6920,848
15.6940,336
15.6960,272
15.6980,656
15.7000,352
15.7020,592
15.7040,1328
15.7060,1984
15.7080,352
15.7100,400
15.7120,256
15.7140,4048
15.7160,2560
15.7180,224
15.7200,544
15.7220,896
15.7240,192
15.7260,1168
15.7280,768
15.7300,480
15.7320,384
15.7340,544
15.7360,592
15.7380,6801
15.7400,2384
15.7420,528
15.7440,688
15.7460,656
15.7480,672
15.7500,592
15.7520,320
15.7540,1168
15.7560,656
15.7580,2256
15.7600,544
15.7620,512
15.7640,448
15.7660,608
15.7680,1872
15.7700,672
15.7720,656
15.7740,400
15.7760,384
15.7780,560
15.7800,720
15.7820,720
15.7840,848
15.7860,832
15.7880,352
15.7900,1872
15.7920,224
15.7940,1936
15.7960,176
15.7980,960
15.8000,656
15.8020,272
15.8040,2656
15.8060,1024
15.8080,272
15.8100,1536
15.8120,736
15.8140,464
15.8160,128
15.8180,288
15.8200,592
15.8220,432
15.8240,528
15.8260,400
15.8280,528
15.8300,1376
15.8320,1456
15.8340,496
15.8360,416
15.8380,672
15.8400,784
15.8420,848
15.8440,800
15.8460,2096
15.8480,464
15.8500,336
15.8520,656
15.8540,176
15.8560,832
15.8580,336
15.8600,2144
15.8620,688
15.8640,4161
15.8660,5649
15.8680,432
15.8700,560
15.8720,1088
15.8740,1024
15.8760,528
15.8780,1072
15.8800,528
15.8820,608
15.8840,800
15.8860,432
15.8880,6449
15.8900,3376
15.8920,544
15.8940,944
15.8960,2048
15.8980,1168
15.9000,1600
15.9020,1120
15.9040,992
15.9060,640
15.9080,5265
15.9100,784
15.9120,496
15.9140,720
15.9160,3728
15.9180,1712
15.9200,1056
15.9220,992
15.9240,224
15.9260,400
15.9280,544
15.9300,1120
15.9320,944
15.9340,384
15.9360,512
15.9380,5857
15.9400,3552
15.9420,1280
15.9440,1280
15.9460,336
15.9480,416
15.9500,656
15.9520,1568
15.9540,736
15.9560,672
15.9580,400
15.9600,1424
15.9620,656
15.9640,3008
15.9660,592
15.9680,384
15.9700,624
15.9720,288
15.9740,1184
15.9760,1216
15.9780,848
15.9800,768
15.9820,4673
15.9840,448
15.9860,688
15.9880,448
15.9900,768
15.9920,2240
15.9940,208
15.9960,384
15.9980,992
16.0000,384
16.0020,320
16.0040,736
16.0060,560
16.0080,608
16.0100,336
16.0120,416
16.0140,320
16.0160,768
16.0180,944
16.0200,832
16.0220,1552
16.0240,976
16.0260,720
16.0280,1344
16.0300,480
16.0320,464
16.0340,1376
16.0360,2400
16.0380,3536
16.0400,1120
16.0420,368
16.0440,592
16.0460,1440
16.0480,3264
16.0500,1840
16.0520,352
16.0540,1792
16.0560,1632
16.0580,1104
16.0600,768
16.0620,2144
16.0640,1664
16.0660,848
16.0680,816
16.0700,480
16.0720,640
16.0740,464
16.0760,3344
16.0780,736
16.0800,2208
16.0820,1168
16.0840,560
16.0860,3840
16.0880,1280
16.0900,896
16.0920,528
16.0940,1920
16.0960,7585
16.0980,832
16.1000,432
16.1020,512
16.1040,688
16.1060,3232
16.1080,448
16.1100,1024
16.1120,1024
16.1140,464
16.1160,1296
16.1180,1184
16.1200,1184
16.1220,2128
16.1240,1216
16.1260,512
16.1280,736
16.1300,528
16.1320,512
16.1340,848
16.1360,1568
16.1380,288
16.1400,352
16.1420,816
16.1440,1088
16.1460,1152
16.1480,2176
16.1500,736
16.1520,896
16.1540,848
16.1560,736
16.1580,1280
16.1600,4177
16.1620,976
16.1640,352
16.1660,640
16.1680,544
16.1700,2512
16.1720,3216
16.1740,1168
16.1760,1664
16.1780,2544
16.1800,864
16.1820,1152
16.1840,9458
16.1860,1328
16.1880,832
16.1900,592
16.1920,416
16.1940,3968
16.1960,656
16.1980,1680
16.2000,544
16.2020,1008
16.2040,3808
16.2060,2432
16.2080,720
16.2100,848
16.2120,2464
16.2140,416
16.2160,528
16.2180,1296
16.2200,672
16.2220,4753
16.2240,832
16.2260,432
16.2280,672
16.2300,448
16.2320,416
16.2340,8161
16.2360,736
16.2380,640
16.2400,1408
16.2420,1168
16.2440,320
16.2460,320
16.2480,6049
16.2500,3264
16.2520,544
16.2540,3248
16.2560,912
16.2580,5057
16.2600,448
16.2620,6065
16.2640,656
16.2660,8642
16.2680,2288
16.2700,1600
16.2720,2752
16.2740,1840
16.2760,432
16.2780,320
16.2800,3712
16.2820,880
16.2840,1120
16.2860,832
16.2880,1232
16.2900,2128
16.2920,2720
16.2940,448
16.2960,704
16.2980,800
16.3000,256
16.3020,3744
16.3040,1936
16.3060,1488
16.3080,608
16.3100,304
16.3120,5041
16.3140,4273
16.3160,176
16.3180,1520
16.3200,928
16.3220,688
16.3240,464
16.3260,720
16.3280,7249
16.3300,8738
16.3320,832
16.3340,768
16.3360,736
16.3380,1312
16.3400,272
16.3420,2752
16.3440,400
16.3460,256
16.3480,11346
16.3500,3520
16.3520,2848
16.3540,544
16.3560,720
16.3580,640
16.3600,992
16.3620,656
16.3640,3360
16.3660,3664
16.3680,4097
16.3700,416
16.3720,352
16.3740,624
16.3760,4881
16.3780,4257
16.3800,8290
16.3820,1088
16.3840,9906
16.3860,208
16.3880,2768
16.3900,1616
16.3920,384
16.3940,480
16.3960,4113
16.3980,400
16.4000,832
16.4020,1808
16.4040,3216
16.4060,1632
16.4080,7313
16.4100,400
16.4120,10978
16.4140,10178
16.4160,1104
16.4180,11906
16.4200,5249
16.4220,784
16.4240,448
16.4260,2944
16.4280,16035
16.4300,6369
16.4320,1936
16.4340,1488
16.4360,1344
16.4380,2368
16.4400,2528
16.4420,4433
16.4440,2720
16.4460,6945
16.4480,4305
16.4500,576
16.4520,1808
16.4540,11874
16.4560,2576
16.4580,832
16.4600,2016
16.4620,1168
16.4640,1552
16.4660,7009
16.4680,1248
16.4700,1600
16.4720,2640
16.4740,832
16.4760,6161
16.4780,6881
16.4800,1248
16.4820,1104
16.4840,6993
16.4860,1968
16.4880,1280
16.4900,2608
16.4920,8594
16.4940,1408
16.4960,944
16.4980,656
16.5000,1264
16.5020,2400
16.5040,8274
16.5060,2592
16.5080,2880
16.5100,1344
16.5120,2112
16.5140,10114
16.5160,7905
16.5180,2368
16.5200,512
16.5220,1120
16.5240,944
16.5260,832
16.5280,592
16.5300,1488
16.5320,448
16.5340,6913
16.5360,5329
16.5380,3872
16.5400,8290
16.5420,816
16.5440,7665
16.5460,2720
16.5480,592
16.5500,6369
16.5520,12339
16.5540,6177
16.5560,10930
16.5580,1216
16.5600,5585
16.5620,1184
16.5640,2192
16.5660,5057
16.5680,6529
16.5700,10818
16.5720,1264
16.5740,5665
16.5760,3712
16.5780,7793
16.5800,15299
16.5820,11186
16.5840,720
16.5860,1824
16.5880,2208
16.5900,4321
16.5920,832
16.5940,1600
16.5960,4048
16.5980,8177
16.6000,480
16.6020,2688
16.6040,1632
16.6060,8161
16.6080,1584
16.6100,7985
16.6120,800
16.6140,6545
16.6160,12547
16.6180,12835
16.6200,6257
16.6220,800
16.6240,720
16.6260,1600
16.6280,3392
16.6300,2736
16.6320,5521
16.6340,304
16.6360,816
16.6380,5601
16.6400,17060
16.6420,3840
16.6440,8802
16.6460,8177
16.6480,16820
16.6500,3776
16.6520,12979
16.6540,23061
16.6560,6913
16.6580,5489
16.6600,416
16.6620,6209
16.6640,9202
16.6660,7825
16.6680,704
16.6700,15555
16.6720,11586
16.6740,992
16.6760,720
16.6780,2464
16.6800,2000
16.6820,848
16.6840,13491
16.6860,11650
16.6880,11410
16.6900,17460
16.6920,4369
16.6940,22741
16.6960,1584
16.6980,19316
16.7000,15251
16.7020,5457
16.7040,16307
16.7060,25254
16.7080,7057
16.7100,15331
16.7120,6929
16.7140,2368
16.7160,4689
16.7180,14675
16.7200,14755
16.7220,3088
16.7240,6881
16.7260,1024
16.7280,7041
16.7300,320
16.7320,3264
16.7340,9202
16.7360,4209
16.7380,11202
16.7400,17652
16.7420,12627
16.7440,5937
16.7460,41354
16.7480,19780
16.7500,6209
16.7520,7905
16.7540,10594
16.7560,10322
16.7580,4993
16.7600,8386
16.7620,12066
16.7640,512
16.7660,20372
16.7680,4865
16.7700,4689
16.7720,4513
16.7740,17300
16.7760,8258
16.7780,29511
16.7800,10754
16.7820,7089
16.7840,16468
16.7860,3872
16.7880,14867
16.7900,2624
16.7920,3872
16.7940,5793
16.7960,1200
16.7980,4529
16.8000,18852
16.8020,13795
16.8040,576
16.8060,1184
16.8080,10642
16.8100,20004
16.8120,2368
16.8140,32055
16.8160,5217
16.8180,2944
16.8200,11010
16.8220,15267
16.8240,5681
16.8260,19796
16.8280,11906
16.8300,11906
16.8320,8674
16.8340,6017
16.8360,1712
16.8380,4721
16.8400,22981
16.8420,1744
16.8440,8145
16.8460,15555
16.8480,40970
16.8500,5921
16.8520,6145
16.8540,4449
16.8560,2944
16.8580,38281
16.8600,12226
16.8620,1536
16.8640,11058
16.8660,24902
16.8680,9474
16.8700,4561
16.8720,8722
16.8740,8802
16.8760,26470
16.8780,4048
16.8800,10402
16.8820,12595
16.8840,45067
16.8860,4929
16.8880,13411
16.8900,816
16.8920,15379
16.8940,2064
16.8960,7137
16.8980,15187
16.9000,3344
16.9020,720
16.9040,15971
16.9060,12242
16.9080,6353
16.9100,21861
16.9120,960
16.9140,4113
16.9160,30199
16.9180,25270
16.9200,11858
16.9220,1344
16.9240,1408
16.9260,3536
16.9280,16644
16.9300,10242
16.9320,19364
16.9340,18484
16.9360,4593
16.9380,17412
16.9400,2144
16.9420,8370
16.9440,928
16.9460,16035
16.9480,14659
16.9500,5713
16.9520,2112
16.9540,8338
16.9560,2176
16.9580,11858
16.9600,28422
16.9620,3632
16.9640,5713
16.9660,3584
16.9680,8065
16.9700,14099
16.9720,1280
16.9740,32471
16.9760,432
16.9780,36905
16.9800,3248
16.9820,4785
16.9840,6833
16.9860,14387
16.9880,23317
16.9900,4625
16.9920,10002
16.9940,23813
16.9960,24101
16.9980,27302
17.0000,2064
17.0020,12979
17.0040,4305
17.0060,12130
17.0080,16564
17.0100,4705
17.0120,1456
17.0140,5889
17.0160,17156
17.0180,24117
17.0200,2144
17.0220,2944
17.0240,3616
17.0260,25574
17.0280,464
17.0300,2848
17.0320,14051
17.0340,20004
17.0360,4417
17.0380,6625
17.0400,4945
17.0420,28582
17.0440,46427
17.0460,384
17.0480,7777
17.0500,2336
17.0520,9938
17.0540,10882
17.0560,10930
17.0580,13043
17.0600,15571
17.0620,3408
17.0640,3984
17.0660,816
17.0680,3920
17.0700,7009
17.0720,11282
17.0740,5585
17.0760,19268
17.0780,16980
17.0800,7745
17.0820,11186
17.0840,1296
17.0860,39433
17.0880,20789
17.0900,3328
17.0920,1200
17.0940,11042
17.0960,43690
17.0980,24005
17.1000,18388
17.1020,14163
17.1040,1520
17.1060,1120
17.1080,43114
17.1100,8129
17.1120,640
17.1140,1040
17.1160,10930
17.1180,14243
17.1200,8017
17.1220,2000
17.1240,8594
17.1260,10130
17.1280,3104
17.1300,23957
17.1320,7361
17.1340,2096
17.1360,3536
17.1380,320
17.1400,5889
17.1420,1056
17.1440,16003
17.1460,1200
17.1480,6593
17.1500,1216
17.1520,15299
17.1540,1456
17.1560,8226
17.1580,4177
17.1600,16772
17.1620,16788
17.1640,16596
17.1660,34360
17.1680,12098
17.1700,22741
17.1720,26854
17.1740,1568
17.1760,9842
17.1780,6897
17.1800,19764
17.1820,12867
17.1840,11314
17.1860,544
17.1880,784
17.1900,2720
17.1920,17556
17.1940,7745
17.1960,13027
17.1980,30295
17.2000,2368
17.2020,16548
17.2040,24469
17.2060,880
17.2080,13155
17.2100,752
17.2120,7905
17.2140,1200
17.2160,11490
17.2180,6561
17.2200,3024
17.2220,22341
17.2240,992
17.2260,3040
17.2280,5505
17.2300,7489
17.2320,1744
17.2340,16612
17.2360,7617
17.2380,11698
17.2400,3168
17.2420,24421
17.2440,1440
17.2460,14995
17.2480,6593
17.2500,8450
17.2520,1056
17.2540,6609
17.2560,10898
17.2580,1600
17.2600,17188
17.2620,20004
17.2640,17812
17.2660,6193
17.2680,560
17.2700,3504
17.2720,5137
17.2740,8386
17.2760,10290
17.2780,14515
17.2800,22613
17.2820,16355
17.2840,13379
17.2860,832
17.2880,2560
17.2900,2560
17.2920,1264
17.2940,16980
17.2960,2688
17.2980,6993
17.3000,16083
17.3020,16660
17.3040,9298
17.3060,12258
17.3080,8161
17.3100,23253
17.3120,3280
17.3140,6673
17.3160,13987
17.3180,576
17.3200,4945
17.3220,11202
17.3240,5345
17.3260,9154
17.3280,9730
17.3300,6913
17.3320,5905
17.3340,1968
17.3360,1632
17.3380,9314
17.3400,8177
17.3420,20420
17.3440,1536
17.3460,14563
17.3480,11698
17.3500,2336
17.3520,688
17.3540,5601
17.3560,13587
17.3580,7809
17.3600,7217
17.3620,3840
17.3640,7745
17.3660,2352
17.3680,1744
17.3700,11394
17.3720,20645
17.3740,944
17.3760,15683
17.3780,8770
17.3800,3088
17.3820,18228
17.3840,5137
17.3860,4321
17.3880,608
17.3900,8946
17.3920,960
17.3940,27046
17.3960,13315
17.3980,22917
17.4000,3696
17.4020,3808
17.4040,10258
17.4060,12499
17.4080,6865
17.4100,13523
17.4120,11826
17.4140,22869
17.4160,12691
17.4180,1552
17.4200,1856
17.4220,3360
17.4240,3472
17.4260,592
17.4280,21925
17.4300,17412
17.4320,1024
17.4340,10690
17.4360,1680
17.4380,1824
17.4400,30631
17.4420,11586
17.4440,6561
17.4460,864
17.4480,2384
17.4500,480
17.4520,12178
17.4540,704
17.4560,11346
17.4580,19156
17.4600,4321
17.4620,5057
17.4640,18180
17.4660,30279
17.4680,19716
17.4700,720
17.4720,3936
17.4740,1504
17.4760,11842
17.4780,1584
17.4800,12114
17.4820,768
17.4840,832
17.4860,12995
17.4880,1600
17.4900,9986
17.4920,1568
17.4940,5601
17.4960,12258
17.4980,720
17.5000,1808
17.5020,1488
17.5040,6481
17.5060,944
17.5080,1520
17.5100,6641
17.5120,10914
17.5140,5345
17.5160,7393
17.5180,16035
17.5200,5457
17.5220,3872
17.5240,1600
17.5260,9922
17.5280,39769
17.5300,17556
17.5320,16179
17.5340,8642
17.5360,14435
17.5380,5393
17.5400,9026
17.5420,832
17.5440,400
17.5460,6833
17.5480,21781
17.5500,3600
17.5520,10930
17.5540,10770
17.5560,3728
17.5580,6913
17.5600,640
17.5620,18580
17.5640,4401
17.5660,6561
17.5680,1232
17.5700,720
17.5720,3328
17.5740,864
17.5760,816
17.5780,1072
17.5800,6337
17.5820,7041
17.5840,20629
17.5860,912
17.5880,2176
17.5900,21653
17.5920,8482
17.5940,25334
17.5960,2352
17.5980,1152
17.6000,9138
17.6020,4401
17.6040,1872
17.6060,14851
17.6080,9138
17.6100,7793
17.6120,15251
17.6140,14819
17.6160,2336
17.6180,11218
17.6200,16644
17.6220,4145
17.6240,7313
17.6260,7825
17.6280,16163
17.6300,8081
17.6320,16548
17.6340,8274
17.6360,656
17.6380,848
17.6400,8754
17.6420,256
17.6440,15859
17.6460,7825
17.6480,16724
17.6500,5585
17.6520,7105
17.6540,12515
17.6560,12835
17.6580,33240
17.6600,3488
17.6620,15571
17.6640,1040
17.6660,2080
17.6680,28182
17.6700,17940
17.6720,15811
17.6740,1376
17.6760,2464
17.6780,9506
17.6800,7425
17.6820,10914
17.6840,7553
17.6860,2576
17.6880,18212
17.6900,4849
17.6920,2864
17.6940,13699
17.6960,7041
17.6980,11778
17.7000,4321
17.7020,8065
17.7040,11586
17.7060,4129
17.7080,752
17.7100,1984
17.7120,3248
17.7140,3248
17.7160,2016
17.7180,4929
17.7200,10162
17.7220,8754
17.7240,26886
17.7260,6465
17.7280,1104
17.7300,6209
17.7320,960
17.7340,5697
17.7360,13619
17.7380,4449
17.7400,25542
17.7420,18276
17.7440,5217
17.7460,688
17.7480,17572
17.7500,23589
17.7520,10786
17.7540,10306
17.7560,3008
17.7580,5809
17.7600,10514
17.7620,10114
17.7640,13267
17.7660,1952
17.7680,18148
17.7700,8834
17.7720,15331
17.7740,2496
17.7760,4737
17.7780,11730
17.7800,3760
17.7820,9874
17.7840,7665
17.7860,6801
17.7880,4785
17.7900,14339
17.7920,15043
17.7940,2544
17.7960,7761
17.7980,16259
17.8000,16019
17.8020,4801
17.8040,928
17.8060,5953
17.8080,3696
17.8100,1936
17.8120,1344
17.8140,10578
17.8160,19684
17.8180,848
17.8200,16868
17.8220,640
17.8240,27062
17.8260,19620
17.8280,4769
17.8300,1712
17.8320,1296
17.8340,9170
17.8360,960
17.8380,2560
17.8400,2304
17.8420,1600
17.8440,4737
17.8460,3104
17.8480,7377
17.8500,7729
17.8520,5937
17.8540,1328
17.8560,13731
17.8580,1152
17.8600,1120
17.8620,2896
17.8640,10530
17.8660,928
17.8680,18740
17.8700,1488
17.8720,6801
17.8740,3264
17.8760,4016
17.8780,6625
17.8800,15747
17.8820,4897
17.8840,43850
17.8860,20388
17.8880,3584
17.8900,16628
17.8920,16932
17.8940,8402
17.8960,816
17.8980,944
17.9000,5041
17.9020,2064
17.9040,11362
17.9060,14067
17.9080,9730
17.9100,8322
17.9120,20324
17.9140,8450
17.9160,5201
17.9180,1088
17.9200,4385
17.9220,14131
17.9240,6817
17.9260,5009
17.9280,8177
17.9300,12659
17.9320,544
17.9340,6033
17.9360,2496
17.9380,3616
17.9400,1824
17.9420,12178
17.9440,7313
17.9460,5041
17.9480,6417
17.9500,2400
17.9520,1056
17.9540,1296
17.9560,1792
17.9580,7489
17.9600,2192
17.9620,4753
17.9640,1616
17.9660,944
17.9680,448
17.9700,18580
17.9720,1680
17.9740,3968
17.9760,36536
17.9780,7841
17.9800,20436
17.9820,37913
17.9840,13603
17.9860,1152
17.9880,13907
17.9900,4577
17.9920,12323
17.9940,6961
17.9960,15459
17.9980,18196
18.0000,3104
18.0020,2048
18.0040,624
18.0060,1488
18.0080,3984
18.0100,5681
18.0120,848
18.0140,4545
18.0160,2832
18.0180,2368
18.0200,1072
18.0220,9106
18.0240,14579
18.0260,5729
18.0280,6193
18.0300,13027
18.0320,1440
18.0340,10962
18.0360,14643
18.0380,15539
18.0400,44234
18.0420,528
18.0440,6049
18.0460,7153
18.0480,4481
18.0500,944
18.0520,5905
18.0540,544
18.0560,5777
18.0580,1088
18.0600,16580
18.0620,4993
18.0640,1600
18.0660,13443
18.0680,15443
18.0700,3808
18.0720,9826
18.0740,22341
18.0760,10466
18.0780,6017
18.0800,30439
18.0820,592
18.0840,7473
18.0860,12194
18.0880,2528
18.0900,18932
18.0920,5521
18.0940,2496
18.0960,13779
18.0980,6785
18.1000,1168
18.1020,10690
18.1040,8434
18.1060,24565
18.1080,11426
18.1100,23253
18.1120,6993
18.1140,4433
18.1160,14723
18.1180,4529
18.1200,224
18.1220,2480
18.1240,2192
18.1260,4305
18.1280,17716
18.1300,5553
18.1320,6657
18.1340,688
18.1360,9954
18.1380,5729
18.1400,6673
18.1420,3872
18.1440,736
18.1460,5393
18.1480,6081
18.1500,20885
18.1520,3600
18.1540,576
18.1560,12130
18.1580,1424
18.1600,1808
18.1620,10594
18.1640,15779
18.1660,4177
18.1680,12771
18.1700,1920
18.1720,4193
18.1740,6785
18.1760,1072
18.1780,656
18.1800,9282
18.1820,5921
18.1840,576
18.1860,2176
18.1880,9794
18.1900,5041
18.1920,4064
18.1940,11746
18.1960,1520
18.1980,5249
18.2000,6737
18.2020,3248
18.2040,3792
18.2060,848
18.2080,4657
18.2100,2080
18.2120,3264
18.2140,5969
18.2160,30967
18.2180,7985
18.2200,35960
18.2220,2400
18.2240,3552
18.2260,7089
18.2280,2336
18.2300,784
18.2320,2064
18.2340,10354
18.2360,7937
18.2380,4929
18.2400,9762
18.2420,5665
18.2440,15827
18.2460,3984
18.2480,37193
18.2500,12627
18.2520,10434
18.2540,800
18.2560,960
18.2580,2464
18.2600,2816
18.2620,18996
18.2640,12162
18.2660,9762
18.2680,9698
18.2700,976
18.2720,5617
18.2740,18356
18.2760,8722
18.2780,3824
18.2800,11906
18.2820,4961
18.2840,9474
18.2860,12595
18.2880,11154
18.2900,5473
18.2920,5969
18.2940,1632
18.2960,12323
18.2980,10530
18.3000,16355
18.3020,20356
18.3040,5761
18.3060,3984
18.3080,464
18.3100,10274
18.3120,23909
18.3140,21077
18.3160,3136
18.3180,16724
18.3200,7041
18.3220,1184
18.3240,15011
18.3260,11410
18.3280,9266
18.3300,9906
18.3320,2272
18.3340,8530
18.3360,35880
18.3380,6097
18.3400,7329
18.3420,2912
18.3440,1216
18.3460,3648
18.3480,18308
18.3500,19492
18.3520,576
18.3540,640
18.3560,11026
18.3580,1680
18.3600,816
18.3620,22165
18.3640,1168
18.3660,29143
18.3680,21077
18.3700,1072
18.3720,9298
18.3740,7217
18.3760,1936
18.3780,704
18.3800,1120
18.3820,15619
18.3840,7089
18.3860,18916
18.3880,26726
18.3900,4048
18.3920,3520
18.3940,11522
18.3960,8722
18.3980,768
18.4000,704
18.4020,6225
18.4040,7777
18.4060,2384
18.4080,4833
18.4100,6561
18.4120,832
18.4140,15043
18.4160,3344
18.4180,5617
18.4200,10450
18.4220,640
18.4240,8978
18.4260,4961
18.4280,12691
18.4300,24389
18.4320,2048
18.4340,3856
18.4360,3024
18.4380,9394
18.4400,3248
18.4420,9282
18.4440,8338
18.4460,7217
18.4480,1248
18.4500,15267
18.4520,10290
18.4540,1328
18.4560,3488
18.4580,656
18.4600,10034
18.4620,3712
18.4640,11138
18.4660,784
18.4680,1808
18.4700,17364
18.4720,8850
18.4740,544
18.4760,7329
18.4780,1456
18.4800,11714
18.4820,2640
18.4840,12050
18.4860,4080
18.4880,39209
18.4900,560
18.4920,3872
18.4940,1504
18.4960,608
18.4980,7153
18.5000,11922
18.5020,19396
18.5040,20485
18.5060,6145
18.5080,1056
18.5100,4897
18.5120,10754
18.5140,9458
18.5160,14819
18.5180,19572
18.5200,4080
18.5220,2096
18.5240,4993
18.5260,2640
18.5280,1024
18.5300,5697
18.5320,256
18.5340,448
18.5360,2256
18.5380,1296
18.5400,18916
18.5420,2816
18.5440,1040
18.5460,1984
18.5480,22549
18.5500,6289
18.5520,1760
18.5540,13411
18.5560,2272
18.5580,800
18.5600,8177
18.5620,7137
18.5640,3888
18.5660,17476
18.5680,5713
18.5700,2240
18.5720,1072
18.5740,864
18.5760,2176
18.5780,3872
18.5800,10258
18.5820,14163
18.5840,10370
18.5860,23269
18.5880,12483
18.5900,2368
18.5920,7009
18.5940,5345
18.5960,15123
18.5980,480
18.6000,20885
18.6020,4481
18.6040,4241
18.6060,2480
18.6080,8161
18.6100,7217
18.6120,4561
18.6140,13347
18.6160,9314
18.6180,2400
18.6200,4000
18.6220,10962
18.6240,6577
18.6260,5025
18.6280,4401
18.6300,3664
18.6320,1024
18.6340,26630
18.6360,2832
18.6380,3024
18.6400,8962
18.6420,1936
18.6440,14915
18.6460,832
18.6480,14403
18.6500,15955
18.6520,7617
18.6540,7681
18.6560,3552
18.6580,10242
18.6600,3728
18.6620,592
18.6640,6881
18.6660,6577
18.6680,1584
18.6700,2544
18.6720,28855
18.6740,3328
18.6760,18692
18.6780,3024
18.6800,9442
18.6820,4961
18.6840,5697
18.6860,2256
18.6880,14035
18.6900,720
18.6920,832
18.6940,6225
18.6960,960
18.6980,1120
18.7000,12851
18.7020,6017
18.7040,16307
18.7060,736
18.7080,656
18.7100,5617
18.7120,13747
18.7140,7745
18.7160,1504
18.7180,6417
18.7200,14451
18.7220,4481
18.7240,608
18.7260,9602
18.7280,13043
18.7300,480
18.7320,2544
18.7340,704
18.7360,9858
18.7380,1024
18.7400,3184
18.7420,4305
18.7440,592
18.7460,10626
18.7480,10274
18.7500,6017
18.7520,11746
18.7540,1232
18.7560,20501
18.7580,3072
18.7600,5121
18.7620,720
18.7640,6481
18.7660,14339
18.7680,10210
18.7700,22917
18.7720,13907
18.7740,13171
18.7760,2160
18.7780,5073
18.7800,9554
18.7820,3680
18.7840,640
18.7860,6689
18.7880,7249
18.7900,3968
18.7920,1632
18.7940,1056
18.7960,10290
18.7980,528
18.8000,4497
18.8020,7697
18.8040,8145
18.8060,1312
18.8080,8370
18.8100,6657
18.8120,2416
18.8140,4385
18.8160,1168
18.8180,6161
18.8200,2464
18.8220,1888
18.8240,17860
18.8260,1232
18.8280,2736
18.8300,864
18.8320,656
18.8340,2048
18.8360,4993
18.8380,912
18.8400,12467
18.8420,13715
18.8440,1712
18.8460,13363
18.8480,14211
18.8500,1824
18.8520,8818
18.8540,6721
18.8560,18228
18.8580,1808
18.8600,14131
18.8620,13235
18.8640,752
18.8660,544
18.8680,688
18.8700,5185
18.8720,4961
18.8740,6081
18.8760,1376
18.8780,816
18.8800,2416
18.8820,2320
18.8840,8370
18.8860,4769
18.8880,3520
18.8900,2368
18.8920,10786
18.8940,5521
18.8960,4401
18.8980,3088
18.9000,12339
18.9020,12002
18.9040,7489
18.9060,960
18.9080,6801
18.9100,1952
18.9120,1184
18.9140,3104
18.9160,9298
18.9180,5985
18.9200,15299
18.9220,4513
18.9240,1344
18.9260,12899
18.9280,1536
18.9300,19268
18.9320,1472
18.9340,832
18.9360,2672
18.9380,592
18.9400,5921
18.9420,8226
18.9440,640
18.9460,16195
18.9480,2704
18.9500,3760
18.9520,6049
18.9540,4353
18.9560,11682
18.9580,7617
18.9600,7601
18.9620,576
18.9640,528
18.9660,3712
18.9680,2144
18.9700,4145
18.9720,3088
18.9740,1520
18.9760,9394
18.9780,16532
18.9800,18452
18.9820,5953
18.9840,1792
18.9860,416
18.9880,3584
18.9900,4945
18.9920,1376
18.9940,14067
18.9960,3984
18.9980,3136
19.0000,14163
19.0020,8994
19.0040,8129
19.0060,2496
19.0080,4337
19.0100,10466
19.0120,560
19.0140,6161
19.0160,3072
19.0180,2480
19.0200,6833
19.0220,2960
19.0240,3936
19.0260,12803
19.0280,16772
19.0300,272
19.0320,26422
19.0340,19300
19.0360,3376
19.0380,5041
19.0400,1536
19.0420,1536
19.0440,3136
19.0460,2656
19.0480,1216
19.0500,9170
19.0520,528
19.0540,848
19.0560,3856
19.0580,5025
19.0600,1376
19.0620,9810
19.0640,28695
19.0660,2272
19.0680,5521
19.0700,6977
19.0720,9138
19.0740,3504
19.0760,8514
19.0780,2912
19.0800,5473
19.0820,928
19.0840,7041
19.0860,5297
19.0880,2272
19.0900,2480
19.0920,14467
19.0940,5121
19.0960,31591
19.0980,5761
19.1000,9298
19.1020,1616
19.1040,3968
19.1060,13219
19.1080,1280
19.1100,5201
19.1120,6273
19.1140,9170
19.1160,7889
19.1180,3136
19.1200,7345
19.1220,2704
19.1240,0
19.1260,2304
19.1280,1040
19.1300,1856
19.1320,624
19.1340,5185
19.1360,7617
19.1380,6497
19.1400,1424
19.1420,816
19.1440,15747
19.1460,7857
19.1480,6529
19.1500,16708
19.1520,21397
19.1540,18004
19.1560,768
19.1580,8290
19.1600,18356
19.1620,1680
19.1640,7681
19.1660,1264
19.1680,2352
19.1700,1728
19.1720,2832
19.1740,1696
19.1760,480
19.1780,6945
19.1800,29415
19.1820,1248
19.1840,3280
19.1860,8226
19.1880,672
19.1900,7009
19.1920,8322
19.1940,5729
19.1960,1232
19.1980,1088
19.2000,1280
19.2020,14435
19.2040,5025
19.2060,1152
19.2080,7681
19.2100,1152
19.2120,4097
19.2140,4064
19.2160,2384
19.2180,1296
19.2200,1584
19.2220,1216
19.2240,1200
19.2260,5473
19.2280,8065
19.2300,17204
19.2320,912
19.2340,976
19.2360,21189
19.2380,3328
19.2400,192
19.2420,4161
19.2440,4145
19.2460,608
19.2480,800
19.2500,816
19.2520,512
19.2540,5009
19.2560,10290
19.2580,5569
19.2600,4064
19.2620,2352
19.2640,6977
19.2660,672
19.2680,1120
19.2700,1600
19.2720,9250
19.2740,1232
19.2760,928
19.2780,7889
19.2800,9794
19.2820,1376
19.2840,8065
19.2860,2256
19.2880,11602
19.2900,720
19.2920,4417
19.2940,7361
19.2960,7217
19.2980,2992
19.3000,2144
19.3020,1552
19.3040,9522
19.3060,1568
19.3080,1584
19.3100,7633
19.3120,1856
19.3140,11810
19.3160,12627
19.3180,1216
19.3200,480
19.3220,2208
19.3240,5633
19.3260,2528
19.3280,14131
19.3300,4977
19.3320,2128
19.3340,704
19.3360,912
19.3380,5025
19.3400,2688
19.3420,2496
19.3440,3024
19.3460,7537
19.3480,13763
19.3500,1088
19.3520,1184
19.3540,3856
19.3560,848
19.3580,20372
19.3600,448
19.3620,8322
19.3640,3104
19.3660,3168
19.3680,5249
19.3700,1184
19.3720,8177
19.3740,1920
19.3760,288
19.3780,16436
19.3800,1280
19.3820,9650
19.3840,15555
19.3860,14787
19.3880,13459
19.3900,22453
19.3920,5793
19.3940,640
19.3960,400
19.3980,15907
19.4000,13363
19.4020,800
19.4040,576
19.4060,1696
19.4080,992
19.4100,16692
19.4120,9138
19.4140,12114
19.4160,16307
19.4180,2640
19.4200,1024
19.4220,1600
19.4240,9474
19.4260,4945
19.4280,1008
19.4300,1040
19.4320,6673
19.4340,2176
19.4360,6225
19.4380,928
19.4400,8978
19.4420,3104
19.4440,12883
19.4460,704
19.4480,10194
19.4500,1232
19.4520,16788
19.4540,8674
19.4560,9218
19.4580,2592
19.4600,4417
19.4620,3248
19.4640,1008
19.4660,3424
19.4680,1296
19.4700,1040
19.4720,9570
19.4740,5729
19.4760,2128
19.4780,5137
19.4800,416
19.4820,4113
19.4840,2976
19.4860,1744
19.4880,6097
19.4900,6705
19.4920,2432
19.4940,5857
19.4960,3392
19.4980,2640
19.5000,7457
19.5020,7601
19.5040,2208
19.5060,7121
19.5080,15699
19.5100,4257
19.5120,4961
19.5140,3568
19.5160,11586
19.5180,1264
19.5200,22197
19.5220,3536
19.5240,11794
19.5260,4817
19.5280,2480
19.5300,2960
19.5320,5361
19.5340,1408
19.5360,7265
19.5380,6961
19.5400,9618
19.5420,9906
19.5440,2512
19.5460,6673
19.5480,14419
19.5500,6545
19.5520,2576
19.5540,14291
19.5560,9890
19.5580,7633
19.5600,2704
19.5620,1536
19.5640,6385
19.5660,4705
19.5680,944
19.5700,11298
19.5720,4161
19.5740,1712
19.5760,320
19.5780,2688
19.5800,5121
19.5820,6177
19.5840,7521
19.5860,1568
19.5880,688
19.5900,1408
19.5920,13635
19.5940,976
19.5960,1920
19.5980,10562
19.6000,4721
19.6020,13155
19.6040,9218
19.6060,1920
19.6080,12258
19.6100,5057
19.6120,6705
19.6140,1376
19.6160,688
19.6180,5569
19.6200,10578
19.6220,528
19.6240,8290
19.6260,3744
19.6280,1600
19.6300,832
19.6320,1216
19.6340,1152
19.6360,3552
19.6380,10194
19.6400,1312
19.6420,5473
19.6440,7313
19.6460,3488
19.6480,9362
19.6500,1728
19.6520,848
19.6540,2528
19.6560,848
19.6580,11730
19.6600,11858
19.6620,6561
19.6640,5041
19.6660,4865
19.6680,480
19.6700,3232
19.6720,2272
19.6740,848
19.6760,6753
19.6780,2176
19.6800,6929
19.6820,6401
19.6840,9394
19.6860,6257
19.6880,10914
19.6900,1920
19.6920,1168
19.6940,7841
19.6960,13379
19.6980,9234
19.7000,7649
19.7020,10146
19.7040,2720
19.7060,1888
19.7080,16179
19.7100,1680
19.7120,992
19.7140,3632
19.7160,1376
19.7180,400
19.7200,4241
19.7220,14483
19.7240,2208
19.7260,4273
19.7280,21429
19.7300,2400
19.7320,11266
19.7340,6705
19.7360,2592
19.7380,768
19.7400,4337
19.7420,7217
19.7440,9746
19.7460,1344
19.7480,8466
19.7500,11410
19.7520,3296
19.7540,13139
19.7560,9330
19.7580,2128
19.7600,656
19.7620,20965
19.7640,14691
19.7660,3744
19.7680,3056
19.7700,720
19.7720,528
19.7740,688
19.7760,2400
19.7780,1632
19.7800,10114
19.7820,896
19.7840,1440
19.7860,960
19.7880,2784
19.7900,3744
19.7920,8722
19.7940,6673
19.7960,5153
19.7980,1456
19.8000,1040
19.8020,13667
19.8040,4385
19.8060,1568
19.8080,24630
19.8100,608
19.8120,9714
19.8140,20148
19.8160,832
19.8180,2368
19.8200,12803
19.8220,13443
19.8240,22693
19.8260,1280
19.8280,45835
19.8300,30375
19.8320,5953
19.8340,2576
19.8360,11154
19.8380,8177
19.8400,13347
19.8420,3696
19.8440,5137
19.8460,11906
19.8480,784
19.8500,464
19.8520,24245
19.8540,15811
19.8560,10786
19.8580,3392
19.8600,1040
19.8620,5729
19.8640,1712
19.8660,9362
19.8680,12499
19.8700,7873
19.8720,5921
19.8740,12034
19.8760,5921
19.8780,6161
19.8800,2640
19.8820,6737
19.8840,11778
19.8860,6097
19.8880,3648
19.8900,944
19.8920,9122
19.8940,7521
19.8960,1840
19.8980,3984
19.9000,592
19.9020,14419
19.9040,2624
19.9060,6273
19.9080,11362
19.9100,14483
19.9120,688
19.9140,4897
19.9160,11314
19.9180,2448
19.9200,1536
19.9220,1024
19.9240,4177
19.9260,7761
19.9280,576
19.9300,4817
19.9320,3616
19.9340,2720
19.9360,1376
19.9380,13827
19.9400,1792
19.9420,1360
19.9440,13507
19.9460,19668
19.9480,6257
19.9500,2224
19.9520,6849
19.9540,2768
