Tempo(s),EMG_Value
0.0000,1216
0.0020,64
0.0040,864
0.0060,992
0.0080,1424
0.0100,1056
0.0120,1584
0.0140,1152
0.0160,944
0.0180,1488
0.0200,1200
0.0220,1296
0.0240,992
0.0260,1088
0.0280,1040
0.0300,1552
0.0320,1136
0.0340,1616
0.0360,1984
0.0380,1136
0.0400,2048
0.0420,1360
0.0440,1152
0.0460,3056
0.0480,1200
0.0500,1568
0.0520,992
0.0540,960
0.0560,1296
0.0580,1008
0.0600,1664
0.0620,1472
0.0640,1696
0.0660,1040
0.0680,976
0.0700,1504
0.0720,1472
0.0740,1200
0.0760,1184
0.0780,1456
0.0800,1424
0.0820,1072
0.0840,1200
0.0860,1056
0.0880,1072
0.0900,1232
0.0920,1104
0.0940,1056
0.0960,1040
0.0980,1104
0.1000,1152
0.1020,1536
0.1040,1456
0.1060,1840
0.1080,1104
0.1100,1424
0.1120,1328
0.1140,1104
0.1160,1472
0.1180,832
0.1200,2048
0.1220,3024
0.1240,1552
0.1260,1472
0.1280,1232
0.1300,1040
0.1320,1472
0.1340,1840
0.1360,1216
0.1380,1152
0.1400,1328
0.1420,1264
0.1440,1056
0.1460,1808
0.1480,1424
0.1500,1200
0.1520,1760
0.1540,4785
0.1560,2048
0.1580,2592
0.1600,2048
0.1620,1360
0.1640,1456
0.1660,1312
0.1680,1088
0.1700,1232
0.1720,2192
0.1740,1088
0.1760,1168
0.1780,1696
0.1800,1296
0.1820,1120
0.1840,1440
0.1860,1360
0.1880,1136
0.1900,1584
0.1920,1136
0.1940,992
0.1960,1264
0.1980,1024
0.2000,1456
0.2020,1648
0.2040,1248
0.2060,1312
0.2080,1216
0.2100,1424
0.2120,1344
0.2140,1568
0.2160,2240
0.2180,1056
0.2200,1120
0.2220,1248
0.2240,1568
0.2260,1920
0.2280,1232
0.2300,1232
0.2320,1200
0.2340,1696
0.2360,1344
0.2380,960
0.2400,1376
0.2420,1264
0.2440,1216
0.2460,1568
0.2480,928
0.2500,1440
0.2520,1440
0.2540,1968
0.2560,1376
0.2580,1040
0.2600,2176
0.2620,848
0.2640,1776
0.2660,1360
0.2680,1104
0.2700,1456
0.2720,1232
0.2740,1152
0.2760,1104
0.2780,1152
0.2800,1456
0.2820,1984
0.2840,1312
0.2860,1552
0.2880,1504
0.2900,4369
0.2920,3328
0.2940,1808
0.2960,1248
0.2980,1360
0.3000,1248
0.3020,1536
0.3040,1744
0.3060,1024
0.3080,1472
0.3100,1328
0.3120,1504
0.3140,1440
0.3160,1200
0.3180,1168
0.3200,1312
0.3220,976
0.3240,1152
0.3260,1808
0.3280,1616
0.3300,1744
0.3320,1472
0.3340,1888
0.3360,1216
0.3380,1696
0.3400,1088
0.3420,1552
0.3440,1536
0.3460,1280
0.3480,992
0.3500,1328
0.3520,1264
0.3540,1472
0.3560,1088
0.3580,1328
0.3600,1504
0.3620,1152
0.3640,1296
0.3660,928
0.3680,1072
0.3700,1040
0.3720,1024
0.3740,1408
0.3760,1248
0.3780,1456
0.3800,1600
0.3820,1456
0.3840,1472
0.3860,2336
0.3880,1200
0.3900,1072
0.3920,1824
0.3940,1216
0.3960,1232
0.3980,1088
0.4000,1152
0.4020,1216
0.4040,1184
0.4060,1632
0.4080,1744
0.4100,1360
0.4120,6081
0.4140,6641
0.4160,1200
0.4180,1120
0.4200,1312
0.4220,1568
0.4240,1200
0.4260,992
0.4280,1328
0.4300,1488
0.4320,1408
0.4340,1424
0.4360,1072
0.4380,1088
0.4400,1472
0.4420,1296
0.4440,1040
0.4460,1312
0.4480,1168
0.4500,1168
0.4520,1168
0.4540,928
0.4560,1168
0.4580,1616
0.4600,1632
0.4620,1616
0.4640,1360
0.4660,1120
0.4680,1584
0.4700,1984
0.4720,1776
0.4740,1296
0.4760,1024
0.4780,1328
0.4800,1408
0.4820,1424
0.4840,1328
0.4860,1088
0.4880,1504
0.4900,1296
0.4920,1184
0.4940,1552
0.4960,1696
0.4980,1424
0.5000,1632
0.5020,1472
0.5040,1920
0.5060,1456
0.5080,1280
0.5100,1344
0.5120,1264
0.5140,1968
0.5160,2240
0.5180,2096
0.5200,1120
0.5220,1104
0.5240,1664
0.5260,1568
0.5280,1344
0.5300,1296
0.5320,1168
0.5340,1600
0.5360,2080
0.5380,1040
0.5400,1616
0.5420,1264
0.5440,1232
0.5460,1536
0.5480,1664
0.5500,1408
0.5520,1184
0.5540,1536
0.5560,1360
0.5580,1536
0.5600,1120
0.5620,1024
0.5640,1152
0.5660,1456
0.5680,1504
0.5700,1408
0.5720,1696
0.5740,1392
0.5760,1440
0.5780,1296
0.5800,1104
0.5820,1824
0.5840,1136
0.5860,1664
0.5880,1472
0.5900,1360
0.5920,1584
0.5940,1088
0.5960,1328
0.5980,1312
0.6000,1456
0.6020,1296
0.6040,2048
0.6060,1088
0.6080,1344
0.6100,1248
0.6120,1360
0.6140,1232
0.6160,1248
0.6180,1104
0.6200,2496
0.6220,1328
0.6240,1008
0.6260,1472
0.6280,992
0.6300,1424
0.6320,1632
0.6340,1584
0.6360,1360
0.6380,1408
0.6400,944
0.6420,1456
0.6440,1440
0.6460,1328
0.6480,1344
0.6500,1376
0.6520,1088
0.6540,1104
0.6560,1152
0.6580,1152
0.6600,1040
0.6620,1664
0.6640,2080
0.6660,1184
0.6680,1184
0.6700,1216
0.6720,1600
0.6740,1376
0.6760,1376
0.6780,1344
0.6800,944
0.6820,1104
0.6840,1584
0.6860,1504
0.6880,1536
0.6900,2048
0.6920,1328
0.6940,1488
0.6960,912
0.6980,1440
0.7000,1824
0.7020,1456
0.7040,1632
0.7060,1040
0.7080,1456
0.7100,1248
0.7120,1952
0.7140,1616
0.7160,1552
0.7180,1248
0.7200,1312
0.7220,2064
0.7240,2048
0.7260,1568
0.7280,1168
0.7300,928
0.7320,912
0.7340,1376
0.7360,1088
0.7380,1040
0.7400,896
0.7420,1456
0.7440,1888
0.7460,1344
0.7480,1280
0.7500,1120
0.7520,1168
0.7540,1168
0.7560,1376
0.7580,1248
0.7600,1056
0.7620,1440
0.7640,1104
0.7660,1696
0.7680,1312
0.7700,1408
0.7720,1072
0.7740,1584
0.7760,1600
0.7780,1456
0.7800,1344
0.7820,1296
0.7840,1360
0.7860,1152
0.7880,1392
0.7900,1616
0.7920,1296
0.7940,1248
0.7960,1488
0.7980,1280
0.8000,896
0.8020,1232
0.8040,1280
0.8060,1296
0.8080,2016
0.8100,1424
0.8120,1088
0.8140,1296
0.8160,1360
0.8180,1248
0.8200,1488
0.8220,1504
0.8240,1184
0.8260,1392
0.8280,1840
0.8300,1088
0.8320,1600
0.8340,1296
0.8360,1328
0.8380,1600
0.8400,1424
0.8420,1376
0.8440,1296
0.8460,1168
0.8480,1712
0.8500,1168
0.8520,1152
0.8540,1360
0.8560,1296
0.8580,1504
0.8600,1296
0.8620,1200
0.8640,1232
0.8660,1616
0.8680,1696
0.8700,1360
0.8720,7937
0.8740,4641
0.8760,1296
0.8780,1408
0.8800,1024
0.8820,1056
0.8840,1296
0.8860,1360
0.8880,1328
0.8900,1440
0.8920,1312
0.8940,1584
0.8960,1472
0.8980,1296
0.9000,1200
0.9020,1184
0.9040,1184
0.9060,1184
0.9080,1296
0.9100,1424
0.9120,1168
0.9140,1520
0.9160,1168
0.9180,1328
0.9200,1120
0.9220,1408
0.9240,1568
0.9260,1280
0.9280,1024
0.9300,1328
0.9320,1680
0.9340,1152
0.9360,1424
0.9380,1376
0.9400,1072
0.9420,1648
0.9440,1200
0.9460,1088
0.9480,1616
0.9500,1488
0.9520,1168
0.9540,1264
0.9560,1296
0.9580,1696
0.9600,1520
0.9620,1024
0.9640,2272
0.9660,1184
0.9680,928
0.9700,1520
0.9720,1120
0.9740,944
0.9760,960
0.9780,1488
0.9800,1408
0.9820,1408
0.9840,976
0.9860,1344
0.9880,1648
0.9900,1120
0.9920,992
0.9940,1408
0.9960,1328
0.9980,1776
1.0000,800
1.0020,1312
1.0040,1152
1.0060,1872
1.0080,2304
1.0100,1280
1.0120,1328
1.0140,1344
1.0160,1920
1.0180,1024
1.0200,2704
1.0220,1312
1.0240,1344
1.0260,1216
1.0280,1488
1.0300,2464
1.0320,2048
1.0340,1504
1.0360,1280
1.0380,1312
1.0400,1968
1.0420,1056
1.0440,1360
1.0460,1088
1.0480,1568
1.0500,1296
1.0520,1472
1.0540,1184
1.0560,1248
1.0580,1456
1.0600,1856
1.0620,1232
1.0640,1104
1.0660,1936
1.0680,1232
1.0700,1280
1.0720,1744
1.0740,1232
1.0760,1552
1.0780,1264
1.0800,1680
1.0820,1104
1.0840,1312
1.0860,1360
1.0880,1696
1.0900,1040
1.0920,1584
1.0940,2320
1.0960,1360
1.0980,1680
1.1000,1280
1.1020,1808
1.1040,1600
1.1060,1072
1.1080,1248
1.1100,1872
1.1120,2256
1.1140,3104
1.1160,1280
1.1180,1312
1.1200,1984
1.1220,1824
1.1240,1360
1.1260,1408
1.1280,1104
1.1300,1152
1.1320,1088
1.1340,1456
1.1360,1152
1.1380,1920
1.1400,1744
1.1420,832
1.1440,1392
1.1460,1392
1.1480,1312
1.1500,1648
1.1520,1152
1.1540,1616
1.1560,1360
1.1580,1168
1.1600,1040
1.1620,1312
1.1640,1120
1.1660,1376
1.1680,1088
1.1700,1760
1.1720,1216
1.1740,1136
1.1760,1328
1.1780,1328
1.1800,1472
1.1820,1424
1.1840,1328
1.1860,976
1.1880,1568
1.1900,1568
1.1920,1168
1.1940,1264
1.1960,1360
1.1980,1200
1.2000,1056
1.2020,1712
1.2040,1072
1.2060,1216
1.2080,1280
1.2100,1232
1.2120,1696
1.2140,1216
1.2160,1504
1.2180,1088
1.2200,1632
1.2220,1216
1.2240,1648
1.2260,1616
1.2280,992
1.2300,1456
1.2320,1024
1.2340,1728
1.2360,1360
1.2380,1536
1.2400,1600
1.2420,1504
1.2440,1488
1.2460,1632
1.2480,1104
1.2500,1376
1.2520,1936
1.2540,1392
1.2560,1216
1.2580,1280
1.2600,1344
1.2620,1600
1.2640,1280
1.2660,1440
1.2680,1328
1.2700,1024
1.2720,1232
1.2740,1376
1.2760,1344
1.2780,1568
1.2800,1088
1.2820,1136
1.2840,1248
1.2860,1456
1.2880,1312
1.2900,1072
1.2920,1120
1.2940,1536
1.2960,1760
1.2980,1424
1.3000,1536
1.3020,1472
1.3040,1152
1.3060,1024
1.3080,1280
1.3100,1264
1.3120,1072
1.3140,1728
1.3160,1888
1.3180,1248
1.3200,1168
1.3220,1408
1.3240,1296
1.3260,1632
1.3280,1312
1.3300,1344
1.3320,1184
1.3340,1344
1.3360,1376
1.3380,1056
1.3400,1568
1.3420,1296
1.3440,1104
1.3460,1600
1.3480,1312
1.3500,1200
1.3520,1072
1.3540,2192
1.3560,1456
1.3580,1472
1.3600,1328
1.3620,1328
1.3640,1328
1.3660,1152
1.3680,1728
1.3700,1440
1.3720,1216
1.3740,1664
1.3760,1408
1.3780,1488
1.3800,1152
1.3820,1040
1.3840,1040
1.3860,1200
1.3880,1408
1.3900,1792
1.3920,1424
1.3940,1200
1.3960,1120
1.3980,1712
1.4000,928
1.4020,1056
1.4040,1632
1.4060,1568
1.4080,1312
1.4100,1728
1.4120,1648
1.4140,1120
1.4160,1504
1.4180,1456
1.4200,1520
1.4220,1952
1.4240,1200
1.4260,1472
1.4280,1232
1.4300,1472
1.4320,1360
1.4340,944
1.4360,1360
1.4380,832
1.4400,1424
1.4420,1856
1.4440,1344
1.4460,928
1.4480,1456
1.4500,1200
1.4520,1328
1.4540,1232
1.4560,1360
1.4580,1488
1.4600,1152
1.4620,1552
1.4640,1600
1.4660,1248
1.4680,928
1.4700,1584
1.4720,1376
1.4740,1296
1.4760,1296
1.4780,1472
1.4800,1488
1.4820,1712
1.4840,1024
1.4860,912
1.4880,1152
1.4900,1472
1.4920,1296
1.4940,1488
1.4960,1216
1.4980,1232
1.5000,1328
1.5020,1024
1.5040,1792
1.5060,1088
1.5080,1024
1.5100,976
1.5120,992
1.5140,2144
1.5160,1248
1.5180,1536
1.5200,992
1.5220,1328
1.5240,992
1.5260,1328
1.5280,1456
1.5300,1408
1.5320,1488
1.5340,1248
1.5360,1408
1.5380,1856
1.5400,2448
1.5420,912
1.5440,1648
1.5460,1424
1.5480,1520
1.5500,1056
1.5520,1456
1.5540,1056
1.5560,1472
1.5580,1840
1.5600,1456
1.5620,1104
1.5640,1104
1.5660,1344
1.5680,992
1.5700,1184
1.5720,960
1.5740,736
1.5760,1536
1.5780,1328
1.5800,1152
1.5820,1728
1.5840,1168
1.5860,1168
1.5880,1024
1.5900,1408
1.5920,1328
1.5940,1152
1.5960,1632
1.5980,1152
1.6000,1280
1.6020,1808
1.6040,1088
1.6060,1568
1.6080,1744
1.6100,1664
1.6120,1040
1.6140,1456
1.6160,1200
1.6180,1008
1.6200,1312
1.6220,1568
1.6240,1888
1.6260,1616
1.6280,1232
1.6300,1808
1.6320,1360
1.6340,1552
1.6360,1248
1.6380,1360
1.6400,1664
1.6420,1232
1.6440,1120
1.6460,1472
1.6480,1376
1.6500,1360
1.6520,1200
1.6540,6481
1.6560,3888
1.6580,1440
1.6600,912
1.6620,1216
1.6640,1840
1.6660,1456
1.6680,2048
1.6700,1424
1.6720,1024
1.6740,1472
1.6760,1328
1.6780,1680
1.6800,2000
1.6820,1616
1.6840,1504
1.6860,1600
1.6880,2304
1.6900,1888
1.6920,1328
1.6940,1456
1.6960,1824
1.6980,1456
1.7000,1600
1.7020,1296
1.7040,1216
1.7060,1616
1.7080,832
1.7100,1216
1.7120,1216
1.7140,1040
1.7160,1280
1.7180,1328
1.7200,1152
1.7220,2304
1.7240,1568
1.7260,1472
1.7280,1376
1.7300,1040
1.7320,1440
1.7340,1744
1.7360,1072
1.7380,1296
1.7400,1984
1.7420,1568
1.7440,1104
1.7460,1120
1.7480,1216
1.7500,1552
1.7520,1344
1.7540,1072
1.7560,1408
1.7580,1248
1.7600,1424
1.7620,1536
1.7640,1248
1.7660,1728
1.7680,1376
1.7700,1520
1.7720,1296
1.7740,1200
1.7760,1056
1.7780,1152
1.7800,1568
1.7820,1728
1.7840,1040
1.7860,2576
1.7880,2064
1.7900,1552
1.7920,1296
1.7940,1488
1.7960,832
1.7980,2144
1.8000,1152
1.8020,1488
1.8040,1408
1.8060,1408
1.8080,1536
1.8100,1472
1.8120,816
1.8140,1504
1.8160,1056
1.8180,1616
1.8200,976
1.8220,1504
1.8240,1024
1.8260,1248
1.8280,1248
1.8300,1232
1.8320,2144
1.8340,1072
1.8360,1344
1.8380,1216
1.8400,1360
1.8420,1200
1.8440,1232
1.8460,1536
1.8480,1024
1.8500,1808
1.8520,1056
1.8540,1200
1.8560,1440
1.8580,1232
1.8600,1040
1.8620,1376
1.8640,1072
1.8660,1168
1.8680,1392
1.8700,1072
1.8720,1744
1.8740,1344
1.8760,2000
1.8780,1376
1.8800,1392
1.8820,912
1.8840,1072
1.8860,1296
1.8880,1296
1.8900,1056
1.8920,1584
1.8940,1104
1.8960,1120
1.8980,1856
1.9000,2080
1.9020,912
1.9040,2176
1.9060,1616
1.9080,2352
1.9100,1296
1.9120,928
1.9140,1088
1.9160,2640
1.9180,1856
1.9200,1168
1.9220,1024
1.9240,1360
1.9260,816
1.9280,1504
1.9300,1232
1.9320,1568
1.9340,1024
1.9360,1152
1.9380,1168
1.9400,1232
1.9420,1744
1.9440,1360
1.9460,1696
1.9480,1456
1.9500,1440
1.9520,1152
1.9540,1424
1.9560,1504
1.9580,944
1.9600,1312
1.9620,1136
1.9640,1360
1.9660,1168
1.9680,1424
1.9700,1312
1.9720,1280
1.9740,1296
1.9760,1584
1.9780,1696
1.9800,1088
1.9820,1472
1.9840,1568
1.9860,1200
1.9880,912
1.9900,1120
1.9920,1056
1.9940,1296
1.9960,1328
1.9980,1504
2.0000,1104
2.0020,1376
2.0040,1520
2.0060,1296
2.0080,1584
2.0100,1344
2.0120,1728
2.0140,1360
2.0160,1728
2.0180,1424
2.0200,4689
2.0220,4161
2.0240,1168
2.0260,1232
2.0280,1408
2.0300,1328
2.0320,992
2.0340,880
2.0360,1280
2.0380,1024
2.0400,1520
2.0420,1440
2.0440,1104
2.0460,1312
2.0480,1216
2.0500,1584
2.0520,992
2.0540,2096
2.0560,1424
2.0580,1424
2.0600,1344
2.0620,1120
2.0640,1408
2.0660,1680
2.0680,1008
2.0700,1296
2.0720,1104
2.0740,1456
2.0760,1296
2.0780,1328
2.0800,1168
2.0820,1328
2.0840,1152
2.0860,1696
2.0880,1184
2.0900,1712
2.0920,1584
2.0940,1568
2.0960,1104
2.0980,1360
2.1000,1200
2.1020,1232
2.1040,1104
2.1060,1040
2.1080,1328
2.1100,1440
2.1120,1584
2.1140,1232
2.1160,1168
2.1180,1232
2.1200,1584
2.1220,1296
2.1240,912
2.1260,2096
2.1280,928
2.1300,1328
2.1320,1488
2.1340,1616
2.1360,1584
2.1380,1104
2.1400,1264
2.1420,1152
2.1440,1744
2.1460,2544
2.1480,1248
2.1500,960
2.1520,1456
2.1540,1488
2.1560,1664
2.1580,832
2.1600,1440
2.1620,1104
2.1640,1664
2.1660,1200
2.1680,1136
2.1700,1456
2.1720,1872
2.1740,1568
2.1760,1920
2.1780,1360
2.1800,1632
2.1820,1360
2.1840,944
2.1860,1488
2.1880,1408
2.1900,1536
2.1920,1536
2.1940,1056
2.1960,1088
2.1980,1088
2.2000,976
2.2020,1344
2.2040,1456
2.2060,1536
2.2080,1264
2.2100,2064
2.2120,4737
2.2140,4449
2.2160,1072
2.2180,1168
2.2200,1344
2.2220,1344
2.2240,1424
2.2260,1104
2.2280,1280
2.2300,1728
2.2320,944
2.2340,1488
2.2360,1552
2.2380,896
2.2400,1312
2.2420,1008
2.2440,1840
2.2460,1120
2.2480,1792
2.2500,1040
2.2520,1280
2.2540,1408
2.2560,1328
2.2580,1232
2.2600,1376
2.2620,1024
2.2640,1504
2.2660,1008
2.2680,1552
2.2700,1296
2.2720,2096
2.2740,1520
2.2760,1440
2.2780,976
2.2800,1296
2.2820,1424
2.2840,1424
2.2860,1600
2.2880,944
2.2900,1056
2.2920,1904
2.2940,1584
2.2960,1584
2.2980,1424
2.3000,1616
2.3020,1360
2.3040,1056
2.3060,1584
2.3080,1632
2.3100,1344
2.3120,1296
2.3140,944
2.3160,1296
2.3180,1312
2.3200,1856
2.3220,1056
2.3240,1216
2.3260,1808
2.3280,1296
2.3300,1072
2.3320,1760
2.3340,928
2.3360,2000
2.3380,1760
2.3400,896
2.3420,1600
2.3440,1184
2.3460,1296
2.3480,1568
2.3500,1120
2.3520,1376
2.3540,1472
2.3560,2688
2.3580,784
2.3600,1104
2.3620,1424
2.3640,1360
2.3660,1600
2.3680,1184
2.3700,1232
2.3720,1808
2.3740,1120
2.3760,1552
2.3780,1488
2.3800,1248
2.3820,1632
2.3840,1120
2.3860,1664
2.3880,1616
2.3900,1616
2.3920,1840
2.3940,1456
2.3960,1200
2.3980,1120
2.4000,1200
2.4020,2016
2.4040,1616
2.4060,2192
2.4080,1104
2.4100,1232
2.4120,1280
2.4140,2176
2.4160,7809
2.4180,4785
2.4200,768
2.4220,1168
2.4240,1296
2.4260,1440
2.4280,1104
2.4300,1200
2.4320,2528
2.4340,1200
2.4360,1680
2.4380,1696
2.4400,2432
2.4420,1744
2.4440,1904
2.4460,1520
2.4480,1392
2.4500,1024
2.4520,1424
2.4540,1440
2.4560,1200
2.4580,1376
2.4600,1632
2.4620,1232
2.4640,1264
2.4660,1680
2.4680,1408
2.4700,2016
2.4720,1168
2.4740,1456
2.4760,1680
2.4780,1504
2.4800,1680
2.4820,1408
2.4840,1152
2.4860,1520
2.4880,1328
2.4900,1376
2.4920,1120
2.4940,1168
2.4960,1296
2.4980,1952
2.5000,1664
2.5020,912
2.5040,992
2.5060,1360
2.5080,960
2.5100,1344
2.5120,1200
2.5140,976
2.5160,1120
2.5180,1408
2.5200,1216
2.5220,1312
2.5240,1104
2.5260,1120
2.5280,976
2.5300,1488
2.5320,1584
2.5340,656
2.5360,1216
2.5380,1456
2.5400,2272
2.5420,2592
2.5440,1152
2.5460,1376
2.5480,992
2.5500,1056
2.5520,1440
2.5540,960
2.5560,1200
2.5580,1232
2.5600,1440
2.5620,1056
2.5640,1040
2.5660,1056
2.5680,1200
2.5700,1120
2.5720,1152
2.5740,1088
2.5760,1232
2.5780,1504
2.5800,1632
2.5820,3424
2.5840,1568
2.5860,1344
2.5880,1408
2.5900,1552
2.5920,1200
2.5940,1584
2.5960,1104
2.5980,1296
2.6000,1488
2.6020,1760
2.6040,1168
2.6060,1296
2.6080,1840
2.6100,1792
2.6120,1712
2.6140,1312
2.6160,1168
2.6180,1072
2.6200,1408
2.6220,1072
2.6240,1632
2.6260,1232
2.6280,1440
2.6300,1216
2.6320,1600
2.6340,1536
2.6360,1120
2.6380,1376
2.6400,1104
2.6420,1536
2.6440,1424
2.6460,1952
2.6480,1360
2.6500,1456
2.6520,1456
2.6540,1216
2.6560,1296
2.6580,1184
2.6600,1328
2.6620,1376
2.6640,1088
2.6660,1536
2.6680,1968
2.6700,1440
2.6720,1072
2.6740,1200
2.6760,1440
2.6780,1472
2.6800,1104
2.6820,1264
2.6840,1168
2.6860,960
2.6880,1376
2.6900,944
2.6920,1296
2.6940,1408
2.6960,1728
2.6980,1456
2.7000,1056
2.7020,1376
2.7040,1472
2.7060,1120
2.7080,1920
2.7100,1312
2.7120,1440
2.7140,1168
2.7160,1712
2.7180,1200
2.7200,1200
2.7220,2656
2.7240,1328
2.7260,1296
2.7280,1152
2.7300,1104
2.7320,1712
2.7340,1472
2.7360,1216
2.7380,1184
2.7400,1984
2.7420,1600
2.7440,1296
2.7460,1472
2.7480,992
2.7500,1168
2.7520,1408
2.7540,1328
2.7560,976
2.7580,2048
2.7600,1584
2.7620,976
2.7640,1056
2.7660,1232
2.7680,1504
2.7700,1840
2.7720,1152
2.7740,1552
2.7760,976
2.7780,1488
2.7800,1872
2.7820,1424
2.7840,1536
2.7860,1936
2.7880,1632
2.7900,1472
2.7920,1616
2.7940,3968
2.7960,2576
2.7980,2096
2.8000,1376
2.8020,1568
2.8040,1552
2.8060,1344
2.8080,928
2.8100,1280
2.8120,1536
2.8140,2320
2.8160,1056
2.8180,1360
2.8200,1120
2.8220,2176
2.8240,1520
2.8260,1552
2.8280,1984
2.8300,1280
2.8320,1632
2.8340,1040
2.8360,1296
2.8380,1232
2.8400,1600
2.8420,1296
2.8440,1664
2.8460,1808
2.8480,1328
2.8500,1888
2.8520,1344
2.8540,944
2.8560,1472
2.8580,1696
2.8600,1488
2.8620,1344
2.8640,1216
2.8660,1456
2.8680,1120
2.8700,1568
2.8720,1616
2.8740,1680
2.8760,1440
2.8780,1216
2.8800,1360
2.8820,1792
2.8840,1808
2.8860,1792
2.8880,2368
2.8900,1312
2.8920,1424
2.8940,1920
2.8960,1488
2.8980,1424
2.9000,1968
2.9020,7073
2.9040,3840
2.9060,1536
2.9080,1360
2.9100,1344
2.9120,1568
2.9140,1088
2.9160,1808
2.9180,1280
2.9200,2112
2.9220,1168
2.9240,1600
2.9260,1152
2.9280,1296
2.9300,1280
2.9320,1744
2.9340,1456
2.9360,1488
2.9380,1024
2.9400,1872
2.9420,1600
2.9440,1584
2.9460,1424
2.9480,1264
2.9500,1184
2.9520,1504
2.9540,1584
2.9560,1600
2.9580,1360
2.9600,1392
2.9620,1120
2.9640,1168
2.9660,928
2.9680,1232
2.9700,1824
2.9720,1504
2.9740,1456
2.9760,1424
2.9780,1632
2.9800,1600
2.9820,1280
2.9840,1072
2.9860,1360
2.9880,1296
2.9900,2000
2.9920,1792
2.9940,1920
2.9960,1920
2.9980,1120
3.0000,1360
3.0020,1568
3.0040,1216
3.0060,1520
3.0080,1536
3.0100,1824
3.0120,1536
3.0140,1200
3.0160,1616
3.0180,1056
3.0200,1360
3.0220,1536
3.0240,1328
3.0260,1504
3.0280,1200
3.0300,1456
3.0320,1552
3.0340,1856
3.0360,1120
3.0380,4016
3.0400,1504
3.0420,1888
3.0440,1312
3.0460,2624
3.0480,1952
3.0500,1760
3.0520,1104
3.0540,1488
3.0560,1856
3.0580,1168
3.0600,1728
3.0620,2048
3.0640,1840
3.0660,1376
3.0680,1696
3.0700,1488
3.0720,1744
3.0740,2016
3.0760,1168
3.0780,1760
3.0800,1472
3.0820,1168
3.0840,1216
3.0860,1328
3.0880,1120
3.0900,1488
3.0920,1216
3.0940,1744
3.0960,1072
3.0980,1232
3.1000,1760
3.1020,1216
3.1040,1504
3.1060,1216
3.1080,1552
3.1100,1632
3.1120,1280
3.1140,1744
3.1160,1104
3.1180,1680
3.1200,1344
3.1220,2096
3.1240,1680
3.1260,1744
3.1280,1328
3.1300,1280
3.1320,1360
3.1340,1344
3.1360,1552
3.1380,1104
3.1400,1328
3.1420,1520
3.1440,1072
3.1460,2192
3.1480,1664
3.1500,1312
3.1520,1344
3.1540,1728
3.1560,1376
3.1580,1344
3.1600,1360
3.1620,1168
3.1640,1472
3.1660,1504
3.1680,1536
3.1700,1840
3.1720,1760
3.1740,1424
3.1760,1408
3.1780,1568
3.1800,3008
3.1820,1328
3.1840,1840
3.1860,896
3.1880,1152
3.1900,1776
3.1920,1616
3.1940,1440
3.1960,1376
3.1980,1296
3.2000,1152
3.2020,1440
3.2040,1376
3.2060,2160
3.2080,1072
3.2100,1376
3.2120,1024
3.2140,1664
3.2160,1600
3.2180,1488
3.2200,1584
3.2220,1248
3.2240,1616
3.2260,1952
3.2280,1376
3.2300,1632
3.2320,1824
3.2340,960
3.2360,1168
3.2380,2368
3.2400,1584
3.2420,1536
3.2440,1360
3.2460,1552
3.2480,1344
3.2500,1472
3.2520,976
3.2540,1280
3.2560,1264
3.2580,1648
3.2600,1920
3.2620,1696
3.2640,1760
3.2660,1216
3.2680,1712
3.2700,1424
3.2720,1344
3.2740,1456
3.2760,1408
3.2780,5297
3.2800,3072
3.2820,1440
3.2840,1232
3.2860,1424
3.2880,1328
3.2900,1344
3.2920,1440
3.2940,1312
3.2960,1584
3.2980,2240
3.3000,944
3.3020,1408
3.3040,1472
3.3060,928
3.3080,1248
3.3100,2688
3.3120,1360
3.3140,1872
3.3160,1536
3.3180,1488
3.3200,1456
3.3220,1664
3.3240,2016
3.3260,1408
3.3280,1632
3.3300,1488
3.3320,1792
3.3340,1200
3.3360,1600
3.3380,1632
3.3400,1232
3.3420,1664
3.3440,1408
3.3460,1456
3.3480,3792
3.3500,3728
3.3520,1712
3.3540,1936
3.3560,1248
3.3580,3104
3.3600,1632
3.3620,1328
3.3640,1920
3.3660,1760
3.3680,1744
3.3700,1584
3.3720,1424
3.3740,1552
3.3760,2976
3.3780,1392
3.3800,1216
3.3820,1216
3.3840,1568
3.3860,1056
3.3880,1472
3.3900,1360
3.3920,1472
3.3940,1360
3.3960,1520
3.3980,1248
3.4000,1552
3.4020,1440
3.4040,1200
3.4060,2432
3.4080,1168
3.4100,1232
3.4120,1584
3.4140,1760
3.4160,1568
3.4180,1408
3.4200,1216
3.4220,1200
3.4240,1248
3.4260,1440
3.4280,1456
3.4300,992
3.4320,1984
3.4340,1840
3.4360,1920
3.4380,1600
3.4400,1744
3.4420,1248
3.4440,1712
3.4460,1104
3.4480,1552
3.4500,1856
3.4520,1232
3.4540,1504
3.4560,1200
3.4580,1104
3.4600,2048
3.4620,1392
3.4640,1296
3.4660,1248
3.4680,1856
3.4700,1888
3.4720,1824
3.4740,2496
3.4760,1488
3.4780,1424
3.4800,1696
3.4820,1232
3.4840,1296
3.4860,1472
3.4880,864
3.4900,1776
3.4920,1232
3.4940,1344
3.4960,1632
3.4980,2592
3.5000,1104
3.5020,1712
3.5040,1552
3.5060,1216
3.5080,1088
3.5100,1216
3.5120,1296
3.5140,2080
3.5160,1424
3.5180,1408
3.5200,1200
3.5220,1712
3.5240,3216
3.5260,4817
3.5280,1936
3.5300,1744
3.5320,1552
3.5340,1488
3.5360,1712
3.5380,1024
3.5400,1328
3.5420,1312
3.5440,1456
3.5460,1408
3.5480,1472
3.5500,1120
3.5520,1232
3.5540,1328
3.5560,1936
3.5580,1664
3.5600,1232
3.5620,1472
3.5640,2016
3.5660,1248
3.5680,1792
3.5700,848
3.5720,1696
3.5740,1488
3.5760,1632
3.5780,1408
3.5800,1456
3.5820,1712
3.5840,2048
3.5860,1088
3.5880,1584
3.5900,1456
3.5920,1296
3.5940,1328
3.5960,1168
3.5980,1808
3.6000,1872
3.6020,1664
3.6040,1424
3.6060,1328
3.6080,896
3.6100,1488
3.6120,1472
3.6140,1104
3.6160,1168
3.6180,992
3.6200,2704
3.6220,1440
3.6240,1424
3.6260,7505
3.6280,7185
3.6300,1552
3.6320,1040
3.6340,1536
3.6360,848
3.6380,1296
3.6400,1456
3.6420,1472
3.6440,2432
3.6460,1328
3.6480,1728
3.6500,1472
3.6520,1344
3.6540,864
3.6560,1360
3.6580,1568
3.6600,1408
3.6620,1408
3.6640,2128
3.6660,1712
3.6680,1536
3.6700,1312
3.6720,1968
3.6740,1280
3.6760,1984
3.6780,1840
3.6800,1472
3.6820,1808
3.6840,1712
3.6860,1408
3.6880,1552
3.6900,1216
3.6920,1488
3.6940,1808
3.6960,2208
3.6980,1504
3.7000,1424
3.7020,1424
3.7040,1424
3.7060,1104
3.7080,1120
3.7100,1568
3.7120,1328
3.7140,1552
3.7160,928
3.7180,2368
3.7200,1872
3.7220,1312
3.7240,1664
3.7260,1152
3.7280,2448
3.7300,1408
3.7320,1136
3.7340,1952
3.7360,848
3.7380,1184
3.7400,1200
3.7420,1088
3.7440,1728
3.7460,1824
3.7480,1328
3.7500,1712
3.7520,1536
3.7540,1680
3.7560,1632
3.7580,1040
3.7600,1520
3.7620,1488
3.7640,2048
3.7660,1568
3.7680,1072
3.7700,1440
3.7720,1376
3.7740,1280
3.7760,1152
3.7780,1616
3.7800,1792
3.7820,1376
3.7840,1696
3.7860,2752
3.7880,1328
3.7900,1296
3.7920,1104
3.7940,1440
3.7960,1152
3.7980,1728
3.8000,1456
3.8020,1200
3.8040,1248
3.8060,1440
3.8080,1360
3.8100,1840
3.8120,1056
3.8140,1184
3.8160,1024
3.8180,1584
3.8200,1328
3.8220,1440
3.8240,2080
3.8260,1296
3.8280,1376
3.8300,1440
3.8320,1568
3.8340,1248
3.8360,1456
3.8380,1584
3.8400,1152
3.8420,1392
3.8440,1232
3.8460,1376
3.8480,1376
3.8500,1520
3.8520,1664
3.8540,1440
3.8560,1536
3.8580,1440
3.8600,1472
3.8620,1376
3.8640,1504
3.8660,1536
3.8680,1392
3.8700,1440
3.8720,1456
3.8740,1488
3.8760,1200
3.8780,1504
3.8800,6641
3.8820,5505
3.8840,1360
3.8860,1184
3.8880,1088
3.8900,1456
3.8920,1328
3.8940,768
3.8960,1936
3.8980,1232
3.9000,1408
3.9020,848
3.9040,1728
3.9060,2352
3.9080,2160
3.9100,1888
3.9120,1120
3.9140,1440
3.9160,4833
3.9180,1936
3.9200,1344
3.9220,1328
3.9240,1360
3.9260,1584
3.9280,1552
3.9300,2288
3.9320,1792
3.9340,1552
3.9360,1072
3.9380,1280
3.9400,1952
3.9420,1552
3.9440,1632
3.9460,880
3.9480,1552
3.9500,1648
3.9520,1280
3.9540,1648
3.9560,1424
3.9580,2704
3.9600,2224
3.9620,1792
3.9640,1728
3.9660,1888
3.9680,1328
3.9700,1216
3.9720,1408
3.9740,1280
3.9760,1568
3.9780,1216
3.9800,1504
3.9820,1600
3.9840,1408
3.9860,1664
3.9880,1104
3.9900,1200
3.9920,1104
3.9940,1152
3.9960,1152
3.9980,1040
4.0000,1776
4.0020,1536
4.0040,1616
4.0060,1200
4.0080,1472
4.0100,1408
4.0120,1456
4.0140,1536
4.0160,1120
4.0180,1280
4.0200,1600
4.0220,1376
4.0240,1104
4.0260,992
4.0280,1104
4.0300,2432
4.0320,1328
4.0340,864
4.0360,1632
4.0380,2256
4.0400,1296
4.0420,1472
4.0440,1472
4.0460,1456
4.0480,1744
4.0500,1616
4.0520,1200
4.0540,1664
4.0560,1296
4.0580,1376
4.0600,1760
4.0620,832
4.0640,1248
4.0660,1056
4.0680,1696
4.0700,1408
4.0720,1984
4.0740,1872
4.0760,1488
4.0780,1536
4.0800,1104
4.0820,1264
4.0840,1104
4.0860,1280
4.0880,1328
4.0900,1264
4.0920,1616
4.0940,1616
4.0960,1008
4.0980,2096
4.1000,4801
4.1020,3392
4.1040,1344
4.1060,1408
4.1080,1312
4.1100,1376
4.1120,1872
4.1140,1536
4.1160,1520
4.1180,1616
4.1200,1936
4.1220,1792
4.1240,1792
4.1260,1440
4.1280,1072
4.1300,2080
4.1320,1216
4.1340,1408
4.1360,1824
4.1380,1296
4.1400,1552
4.1420,1424
4.1440,800
4.1460,1504
4.1480,1520
4.1500,1520
4.1520,1488
4.1540,1216
4.1560,1120
4.1580,1376
4.1600,1232
4.1620,1920
4.1640,1808
4.1660,1920
4.1680,1216
4.1700,1280
4.1720,1232
4.1740,1232
4.1760,1072
4.1780,1136
4.1800,2112
4.1820,1824
4.1840,1152
4.1860,1152
4.1880,992
4.1900,1600
4.1920,1824
4.1940,1152
4.1960,1344
4.1980,1760
4.2000,1728
4.2020,1920
4.2040,1280
4.2060,1456
4.2080,1104
4.2100,1088
4.2120,1040
4.2140,1328
4.2160,2384
4.2180,1584
4.2200,1280
4.2220,1472
4.2240,1600
4.2260,1280
4.2280,1328
4.2300,1104
4.2320,1120
4.2340,1120
4.2360,1712
4.2380,1488
4.2400,976
4.2420,1104
4.2440,1312
4.2460,1536
4.2480,1392
4.2500,1376
4.2520,1056
4.2540,1440
4.2560,1888
4.2580,1568
4.2600,1392
4.2620,880
4.2640,1296
4.2660,1344
4.2680,1600
4.2700,1504
4.2720,1184
4.2740,2048
4.2760,1200
4.2780,1776
4.2800,1248
4.2820,1088
4.2840,1440
4.2860,1584
4.2880,1680
4.2900,1696
4.2920,1568
4.2940,1376
4.2960,1616
4.2980,1344
4.3000,1760
4.3020,1392
4.3040,1376
4.3060,992
4.3080,1920
4.3100,1200
4.3120,1120
4.3140,1312
4.3160,1024
4.3180,1328
4.3200,1232
4.3220,1712
4.3240,1872
4.3260,1616
4.3280,1344
4.3300,1360
4.3320,1536
4.3340,1088
4.3360,1568
4.3380,1120
4.3400,4993
4.3420,7761
4.3440,2144
4.3460,1536
4.3480,1280
4.3500,1104
4.3520,1424
4.3540,1200
4.3560,1024
4.3580,1264
4.3600,1296
4.3620,1088
4.3640,2576
4.3660,992
4.3680,1536
4.3700,1456
4.3720,1584
4.3740,1568
4.3760,1472
4.3780,1344
4.3800,1488
4.3820,1696
4.3840,1104
4.3860,1040
4.3880,1440
4.3900,1248
4.3920,1536
4.3940,1952
4.3960,912
4.3980,2048
4.4000,1760
4.4020,1232
4.4040,1232
4.4060,992
4.4080,1344
4.4100,1248
4.4120,2048
4.4140,1536
4.4160,1296
4.4180,1248
4.4200,1568
4.4220,1376
4.4240,1600
4.4260,1248
4.4280,1872
4.4300,1104
4.4320,1456
4.4340,1488
4.4360,1280
4.4380,896
4.4400,1376
4.4420,1248
4.4440,1504
4.4460,1200
4.4480,1040
4.4500,1152
4.4520,1360
4.4540,1280
4.4560,3456
4.4580,1568
4.4600,2000
4.4620,1424
4.4640,1344
4.4660,1488
4.4680,2016
4.4700,1552
4.4720,1664
4.4740,1296
4.4760,992
4.4780,1088
4.4800,1280
4.4820,864
4.4840,6145
4.4860,3696
4.4880,1312
4.4900,1088
4.4920,1456
4.4940,1760
4.4960,1824
4.4980,1296
4.5000,1328
4.5020,1472
4.5040,1584
4.5060,1232
4.5080,1328
4.5100,2176
4.5120,2176
4.5140,1664
4.5160,1088
4.5180,1248
4.5200,1248
4.5220,1056
4.5240,1232
4.5260,1456
4.5280,1088
4.5300,1472
4.5320,2000
4.5340,1072
4.5360,1616
4.5380,1680
4.5400,1072
4.5420,1376
4.5440,1104
4.5460,1920
4.5480,1600
4.5500,1600
4.5520,1344
4.5540,1440
4.5560,1232
4.5580,1344
4.5600,1472
4.5620,1696
4.5640,2144
4.5660,1424
4.5680,1328
4.5700,1408
4.5720,1488
4.5740,1488
4.5760,1504
4.5780,1248
4.5800,1632
4.5820,1504
4.5840,976
4.5860,960
4.5880,1280
4.5900,2624
4.5920,1808
4.5940,1312
4.5960,1504
4.5980,1200
4.6000,1216
4.6020,1200
4.6040,1504
4.6060,1552
4.6080,1152
4.6100,1568
4.6120,1232
4.6140,1232
4.6160,1728
4.6180,1472
4.6200,1280
4.6220,2048
4.6240,2384
4.6260,1616
4.6280,992
4.6300,1104
4.6320,992
4.6340,1888
4.6360,1552
4.6380,1360
4.6400,1248
4.6420,1200
4.6440,1744
4.6460,1040
4.6480,1120
4.6500,1376
4.6520,1216
4.6540,1184
4.6560,1152
4.6580,1488
4.6600,1296
4.6620,1472
4.6640,1696
4.6660,1120
4.6680,1120
4.6700,4737
4.6720,7265
4.6740,2000
4.6760,1680
4.6780,1264
4.6800,1232
4.6820,1456
4.6840,1152
4.6860,976
4.6880,1168
4.6900,912
4.6920,1680
4.6940,1088
4.6960,1568
4.6980,1056
4.7000,1232
4.7020,1088
4.7040,992
4.7060,1584
4.7080,1728
4.7100,1536
4.7120,1072
4.7140,1600
4.7160,1504
4.7180,1536
4.7200,1456
4.7220,1440
4.7240,1184
4.7260,1920
4.7280,1296
4.7300,1088
4.7320,1632
4.7340,1728
4.7360,1312
4.7380,1440
4.7400,1232
4.7420,1536
4.7440,1488
4.7460,1440
4.7480,1536
4.7500,1200
4.7520,1328
4.7540,1120
4.7560,2192
4.7580,1664
4.7600,1760
4.7620,1744
4.7640,1008
4.7660,1568
4.7680,1552
4.7700,1168
4.7720,1616
4.7740,1584
4.7760,1568
4.7780,1824
4.7800,1248
4.7820,1424
4.7840,1552
4.7860,1376
4.7880,1520
4.7900,1504
4.7920,1072
4.7940,1296
4.7960,1152
4.7980,1472
4.8000,1424
4.8020,1216
4.8040,1040
4.8060,1552
4.8080,1184
4.8100,1280
4.8120,1440
4.8140,1632
4.8160,1232
4.8180,1680
4.8200,2480
4.8220,2224
4.8240,1536
4.8260,1728
4.8280,1696
4.8300,928
4.8320,1504
4.8340,2080
4.8360,1680
4.8380,1360
4.8400,848
4.8420,1104
4.8440,1440
4.8460,1456
4.8480,1104
4.8500,2112
4.8520,1088
4.8540,1184
4.8560,1200
4.8580,1408
4.8600,1552
4.8620,1392
4.8640,1712
4.8660,1056
4.8680,1664
4.8700,2336
4.8720,1088
4.8740,2144
4.8760,1120
4.8780,1616
4.8800,1408
4.8820,1472
4.8840,1248
4.8860,1312
4.8880,1168
4.8900,1168
4.8920,1504
4.8940,1328
4.8960,1040
4.8980,1328
4.9000,1408
4.9020,1424
4.9040,976
4.9060,1552
4.9080,1920
4.9100,1376
4.9120,1072
4.9140,1200
4.9160,1280
4.9180,1088
4.9200,1056
4.9220,1152
4.9240,1360
4.9260,1712
4.9280,1584
4.9300,1232
4.9320,1104
4.9340,1648
4.9360,1424
4.9380,768
4.9400,5041
4.9420,5441
4.9440,1296
4.9460,1584
4.9480,1552
4.9500,1712
4.9520,1168
4.9540,1008
4.9560,1248
4.9580,1424
4.9600,976
4.9620,1920
4.9640,928
4.9660,1504
4.9680,1504
4.9700,784
4.9720,1168
4.9740,1200
4.9760,1024
4.9780,1376
4.9800,2336
4.9820,1184
4.9840,2112
4.9860,1456
4.9880,1248
4.9900,1296
4.9920,1408
4.9940,2000
4.9960,1552
4.9980,1696
5.0000,1152
5.0020,1312
5.0040,1584
5.0060,1808
5.0080,1248
5.0100,1472
5.0120,1088
5.0140,1360
5.0160,1408
5.0180,1280
5.0200,1600
5.0220,1152
5.0240,1904
5.0260,1952
5.0280,1920
5.0300,1568
5.0320,1120
5.0340,1840
5.0360,1408
5.0380,1200
5.0400,1040
5.0420,2016
5.0440,1296
5.0460,1440
5.0480,2496
5.0500,1408
5.0520,1488
5.0540,1504
5.0560,1616
5.0580,992
5.0600,1600
5.0620,1248
5.0640,800
5.0660,1728
5.0680,1344
5.0700,1312
5.0720,1040
5.0740,1184
5.0760,1232
5.0780,1376
5.0800,1440
5.0820,1360
5.0840,2128
5.0860,4785
5.0880,3280
5.0900,1040
5.0920,1504
5.0940,1376
5.0960,944
5.0980,1584
5.1000,1312
5.1020,1072
5.1040,1536
5.1060,1440
5.1080,1488
5.1100,1360
5.1120,1168
5.1140,1744
5.1160,1424
5.1180,1472
5.1200,1440
5.1220,1200
5.1240,1152
5.1260,2272
5.1280,1872
5.1300,1344
5.1320,1696
5.1340,1232
5.1360,1184
5.1380,1136
5.1400,1616
5.1420,1568
5.1440,1328
5.1460,1760
5.1480,1056
5.1500,1264
5.1520,1584
5.1540,1184
5.1560,1504
5.1580,1472
5.1600,1664
5.1620,1232
5.1640,1408
5.1660,1456
5.1680,1664
5.1700,1632
5.1720,848
5.1740,944
5.1760,1792
5.1780,1760
5.1800,1376
5.1820,1424
5.1840,1744
5.1860,1440
5.1880,1440
5.1900,1360
5.1920,1808
5.1940,816
5.1960,1488
5.1980,1440
5.2000,1456
5.2020,1216
5.2040,1248
5.2060,1200
5.2080,1296
5.2100,1248
5.2120,1344
5.2140,1456
5.2160,1184
5.2180,1312
5.2200,816
5.2220,2048
5.2240,1696
5.2260,1184
5.2280,1536
5.2300,1216
5.2320,2272
5.2340,1072
5.2360,1360
5.2380,4113
5.2400,6257
5.2420,1072
5.2440,1056
5.2460,1424
5.2480,1824
5.2500,1568
5.2520,1376
5.2540,1344
5.2560,1280
5.2580,1040
5.2600,1168
5.2620,2048
5.2640,1840
5.2660,1888
5.2680,1328
5.2700,1024
5.2720,1376
5.2740,1200
5.2760,1712
5.2780,1584
5.2800,1632
5.2820,1904
5.2840,2224
5.2860,864
5.2880,1776
5.2900,1120
5.2920,1200
5.2940,1056
5.2960,1600
5.2980,1024
5.3000,1520
5.3020,1056
5.3040,1552
5.3060,2720
5.3080,1744
5.3100,1616
5.3120,1632
5.3140,1264
5.3160,976
5.3180,1632
5.3200,1680
5.3220,1376
5.3240,1232
5.3260,1696
5.3280,1344
5.3300,1536
5.3320,1760
5.3340,1712
5.3360,1488
5.3380,1440
5.3400,1168
5.3420,1568
5.3440,1344
5.3460,976
5.3480,1728
5.3500,1072
5.3520,1776
5.3540,1104
5.3560,1488
5.3580,1312
5.3600,1440
5.3620,1472
5.3640,1424
5.3660,1536
5.3680,1328
5.3700,1040
5.3720,1520
5.3740,1312
5.3760,1728
5.3780,1056
5.3800,1200
5.3820,1744
5.3840,1232
5.3860,1120
5.3880,1536
5.3900,1008
5.3920,1344
5.3940,1456
5.3960,1392
5.3980,1456
5.4000,1824
5.4020,1184
5.4040,1200
5.4060,1232
5.4080,1536
5.4100,1232
5.4120,1808
5.4140,1712
5.4160,1552
5.4180,2544
5.4200,4161
5.4220,1200
5.4240,1680
5.4260,1440
5.4280,1760
5.4300,1568
5.4320,1296
5.4340,1328
5.4360,1344
5.4380,1024
5.4400,1872
5.4420,1376
5.4440,1600
5.4460,1536
5.4480,1088
5.4500,1680
5.4520,1488
5.4540,1712
5.4560,1488
5.4580,1536
5.4600,1296
5.4620,1376
5.4640,1952
5.4660,1056
5.4680,1536
5.4700,1488
5.4720,1440
5.4740,960
5.4760,1248
5.4780,1840
5.4800,784
5.4820,1680
5.4840,1312
5.4860,832
5.4880,2176
5.4900,1856
5.4920,1504
5.4940,1232
5.4960,1120
5.4980,1760
5.5000,1584
5.5020,1584
5.5040,1376
5.5060,1664
5.5080,3904
5.5100,1616
5.5120,1552
5.5140,1744
5.5160,1360
5.5180,1728
5.5200,1248
5.5220,1424
5.5240,1360
5.5260,1280
5.5280,1152
5.5300,1440
5.5320,1616
5.5340,1376
5.5360,1808
5.5380,1312
5.5400,1536
5.5420,1920
5.5440,1456
5.5460,1344
5.5480,1536
5.5500,1632
5.5520,1456
5.5540,1072
5.5560,1632
5.5580,1680
5.5600,1024
5.5620,1136
5.5640,2768
5.5660,1296
5.5680,1664
5.5700,1024
5.5720,1408
5.5740,1072
5.5760,1408
5.5780,1504
5.5800,1232
5.5820,2032
5.5840,1696
5.5860,1216
5.5880,1408
5.5900,1152
5.5920,3744
5.5940,3968
5.5960,1456
5.5980,1856
5.6000,2112
5.6020,1552
5.6040,1584
5.6060,1072
5.6080,1312
5.6100,1056
5.6120,1488
5.6140,1472
5.6160,1584
5.6180,1584
5.6200,1376
5.6220,1296
5.6240,1472
5.6260,1296
5.6280,1120
5.6300,1376
5.6320,1632
5.6340,1568
5.6360,1648
5.6380,1024
5.6400,1632
5.6420,1008
5.6440,992
5.6460,1248
5.6480,1424
5.6500,1712
5.6520,960
5.6540,1696
5.6560,1344
5.6580,1728
5.6600,3152
5.6620,1680
5.6640,1184
5.6660,1216
5.6680,1360
5.6700,1136
5.6720,1584
5.6740,1408
5.6760,1984
5.6780,1776
5.6800,5425
5.6820,3168
5.6840,1600
5.6860,1088
5.6880,1232
5.6900,1504
5.6920,1344
5.6940,1728
5.6960,1584
5.6980,1584
5.7000,1152
5.7020,1216
5.7040,1840
5.7060,1104
5.7080,1584
5.7100,1088
5.7120,1296
5.7140,1760
5.7160,2640
5.7180,1328
5.7200,1600
5.7220,1264
5.7240,1376
5.7260,1344
5.7280,1248
5.7300,1840
5.7320,1936
5.7340,912
5.7360,1584
5.7380,1552
5.7400,1312
5.7420,1968
5.7440,1744
5.7460,1456
5.7480,1504
5.7500,1552
5.7520,3664
5.7540,1168
5.7560,2800
5.7580,2064
5.7600,1424
5.7620,3360
5.7640,1440
5.7660,2000
5.7680,1392
5.7700,1664
5.7720,2144
5.7740,1104
5.7760,1632
5.7780,1312
5.7800,1760
5.7820,1840
5.7840,1632
5.7860,1312
5.7880,1376
5.7900,1424
5.7920,1456
5.7940,1568
5.7960,2608
5.7980,1424
5.8000,1680
5.8020,1120
5.8040,1968
5.8060,1360
5.8080,1760
5.8100,1696
5.8120,2224
5.8140,2064
5.8160,2272
5.8180,1632
5.8200,1488
5.8220,1088
5.8240,3072
5.8260,2304
5.8280,2704
5.8300,1680
5.8320,1744
5.8340,1744
5.8360,1872
5.8380,1760
5.8400,1072
5.8420,3120
5.8440,1520
5.8460,1168
5.8480,1712
5.8500,1328
5.8520,2352
5.8540,1376
5.8560,1328
5.8580,1680
5.8600,1248
5.8620,1648
5.8640,1232
5.8660,1584
5.8680,1600
5.8700,1760
5.8720,1600
5.8740,1184
5.8760,1152
5.8780,3472
5.8800,1152
5.8820,1472
5.8840,1696
5.8860,1344
5.8880,1328
5.8900,960
5.8920,1584
5.8940,1360
5.8960,1792
5.8980,1520
5.9000,1696
5.9020,1408
5.9040,1376
5.9060,1296
5.9080,1216
5.9100,2352
5.9120,2112
5.9140,1632
5.9160,1872
5.9180,1024
5.9200,1632
5.9220,1200
5.9240,1680
5.9260,1472
5.9280,2096
5.9300,2240
5.9320,1200
5.9340,2176
5.9360,1120
5.9380,2384
5.9400,1408
5.9420,2208
5.9440,2256
5.9460,1200
5.9480,5025
5.9500,3744
5.9520,1216
5.9540,1136
5.9560,1104
5.9580,1968
5.9600,1024
5.9620,2160
5.9640,1744
5.9660,1760
5.9680,1376
5.9700,1200
5.9720,1728
5.9740,1424
5.9760,1616
5.9780,1680
5.9800,1456
5.9820,1664
5.9840,1488
5.9860,1616
5.9880,2256
5.9900,1680
5.9920,1824
5.9940,1856
5.9960,1664
5.9980,2464
6.0000,1952
6.0020,2144
6.0040,1424
6.0060,1616
6.0080,1104
6.0100,1344
6.0120,2784
6.0140,1472
6.0160,1488
6.0180,1408
6.0200,1280
6.0220,1344
6.0240,1456
6.0260,1552
6.0280,1504
6.0300,2480
6.0320,1664
6.0340,1216
6.0360,1168
6.0380,2976
6.0400,3872
6.0420,3072
6.0440,1632
6.0460,992
6.0480,2016
6.0500,1792
6.0520,1600
6.0540,1792
6.0560,1248
6.0580,1744
6.0600,2400
6.0620,1088
6.0640,1680
6.0660,2112
6.0680,1872
6.0700,1584
6.0720,2016
6.0740,2016
6.0760,1824
6.0780,1680
6.0800,1776
6.0820,1696
6.0840,1440
6.0860,1584
6.0880,1856
6.0900,1600
6.0920,1328
6.0940,1824
6.0960,2176
6.0980,1792
6.1000,2064
6.1020,1968
6.1040,2064
6.1060,1232
6.1080,4785
6.1100,7297
6.1120,1296
6.1140,2752
6.1160,2480
6.1180,1552
6.1200,1920
6.1220,1776
6.1240,1888
6.1260,1488
6.1280,944
6.1300,1248
6.1320,1584
6.1340,1984
6.1360,3664
6.1380,2432
6.1400,1296
6.1420,1952
6.1440,1632
6.1460,1728
6.1480,1488
6.1500,1888
6.1520,1488
6.1540,2624
6.1560,1616
6.1580,1888
6.1600,1248
6.1620,1456
6.1640,2496
6.1660,1792
6.1680,1248
6.1700,1072
6.1720,1856
6.1740,1728
6.1760,1312
6.1780,1360
6.1800,2224
6.1820,2624
6.1840,2496
6.1860,1760
6.1880,1344
6.1900,2048
6.1920,1568
6.1940,8546
6.1960,2048
6.1980,6113
6.2000,4385
6.2020,2064
6.2040,1472
6.2060,1296
6.2080,1248
6.2100,1968
6.2120,2016
6.2140,4225
6.2160,1552
6.2180,2480
6.2200,2048
6.2220,1440
6.2240,2640
6.2260,2384
6.2280,1424
6.2300,1600
6.2320,1184
6.2340,3456
6.2360,1472
6.2380,1408
6.2400,1232
6.2420,1600
6.2440,1968
6.2460,1296
6.2480,2656
6.2500,2192
6.2520,1760
6.2540,1696
6.2560,1568
6.2580,1632
6.2600,2512
6.2620,2656
6.2640,1712
6.2660,1840
6.2680,2368
6.2700,3920
6.2720,3200
6.2740,2192
6.2760,1840
6.2780,1760
6.2800,3600
6.2820,1840
6.2840,1872
6.2860,3856
6.2880,1088
6.2900,2128
6.2920,2944
6.2940,1936
6.2960,1616
6.2980,1488
6.3000,2704
6.3020,3280
6.3040,1408
6.3060,1632
6.3080,3008
6.3100,1696
6.3120,2400
6.3140,1456
6.3160,1824
6.3180,2208
6.3200,1344
6.3220,1504
6.3240,1584
6.3260,1936
6.3280,3120
6.3300,4897
6.3320,1920
6.3340,2480
6.3360,2592
6.3380,4369
6.3400,2608
6.3420,1472
6.3440,2880
6.3460,1680
6.3480,1472
6.3500,2880
6.3520,6289
6.3540,1504
6.3560,2176
6.3580,1424
6.3600,3488
6.3620,1728
6.3640,3792
6.3660,1488
6.3680,1376
6.3700,3472
6.3720,2656
6.3740,3040
6.3760,2704
6.3780,1408
6.3800,1920
6.3820,1552
6.3840,1536
6.3860,1328
6.3880,3344
6.3900,1808
6.3920,1280
6.3940,1552
6.3960,2720
6.3980,4609
6.4000,5457
6.4020,1984
6.4040,2384
6.4060,2016
6.4080,1920
6.4100,1344
6.4120,1440
6.4140,5601
6.4160,4881
6.4180,1472
6.4200,1872
6.4220,2336
6.4240,4465
6.4260,3760
6.4280,3280
6.4300,2096
6.4320,3040
6.4340,1312
6.4360,1584
6.4380,2304
6.4400,1728
6.4420,2080
6.4440,2640
6.4460,1872
6.4480,4369
6.4500,3568
6.4520,3248
6.4540,3008
6.4560,2480
6.4580,2528
6.4600,2704
6.4620,4881
6.4640,5601
6.4660,3072
6.4680,7473
6.4700,1952
6.4720,2688
6.4740,3504
6.4760,2608
6.4780,6113
6.4800,1696
6.4820,6001
6.4840,2944
6.4860,5137
6.4880,1840
6.4900,4449
6.4920,1536
6.4940,4257
6.4960,4225
6.4980,6305
6.5000,2400
6.5020,1568
6.5040,3856
6.5060,1584
6.5080,1968
6.5100,2576
6.5120,1760
6.5140,4016
6.5160,1504
6.5180,2560
6.5200,8754
6.5220,2528
6.5240,8402
6.5260,9938
6.5280,4273
6.5300,1728
6.5320,3744
6.5340,1680
6.5360,1872
6.5380,3600
6.5400,4449
6.5420,6737
6.5440,14099
6.5460,1968
6.5480,1600
6.5500,2480
6.5520,1728
6.5540,6737
6.5560,2144
6.5580,3296
6.5600,1664
6.5620,2656
6.5640,2000
6.5660,1808
6.5680,2000
6.5700,8930
6.5720,1888
6.5740,1328
6.5760,3520
6.5780,1568
6.5800,1424
6.5820,3088
6.5840,3712
6.5860,3504
6.5880,3312
6.5900,3168
6.5920,9794
6.5940,5265
6.5960,11010
6.5980,2016
6.6000,7457
6.6020,7297
6.6040,2144
6.6060,1472
6.6080,8258
6.6100,12947
6.6120,1664
6.6140,2064
6.6160,2688
6.6180,1456
6.6200,2512
6.6220,4193
6.6240,19716
6.6260,18212
6.6280,1680
6.6300,1936
6.6320,1984
6.6340,7153
6.6360,4929
6.6380,4817
6.6400,4993
6.6420,2048
6.6440,6705
6.6460,1920
6.6480,6433
6.6500,1568
6.6520,1952
6.6540,5057
6.6560,3712
6.6580,10082
6.6600,11058
6.6620,1984
6.6640,1760
6.6660,1840
6.6680,8081
6.6700,3504
6.6720,10194
6.6740,14691
6.6760,28743
6.6780,1984
6.6800,2688
6.6820,16355
6.6840,1600
6.6860,14771
6.6880,3488
6.6900,2112
6.6920,5265
6.6940,11314
6.6960,1488
6.6980,23781
6.7000,6337
6.7020,5393
6.7040,2640
6.7060,1680
6.7080,11010
6.7100,7089
6.7120,4785
6.7140,4321
6.7160,1792
6.7180,2256
6.7200,5761
6.7220,1696
6.7240,6081
6.7260,1232
6.7280,1616
6.7300,8322
6.7320,7265
6.7340,1888
6.7360,2256
6.7380,5297
6.7400,3328
6.7420,10066
6.7440,5505
6.7460,5521
6.7480,4177
6.7500,4641
6.7520,2048
6.7540,1664
6.7560,21413
6.7580,2880
6.7600,6369
6.7620,1488
6.7640,2016
6.7660,4897
6.7680,3792
6.7700,7361
6.7720,3840
6.7740,10722
6.7760,8610
6.7780,1840
6.7800,2096
6.7820,2368
6.7840,8177
6.7860,3360
6.7880,1296
6.7900,4385
6.7920,8290
6.7940,21509
6.7960,11746
6.7980,7761
6.8000,6065
6.8020,7761
6.8040,2224
6.8060,3760
6.8080,5649
6.8100,13203
6.8120,20789
6.8140,2448
6.8160,3504
6.8180,7617
6.8200,2832
6.8220,2368
6.8240,12274
6.8260,23829
6.8280,5713
6.8300,2528
6.8320,1792
6.8340,3632
6.8360,2368
6.8380,2448
6.8400,1808
6.8420,6481
6.8440,5473
6.8460,5185
6.8480,3376
6.8500,1680
6.8520,11074
6.8540,22213
6.8560,11362
6.8580,16179
6.8600,9794
6.8620,2912
6.8640,4113
6.8660,1904
6.8680,12547
6.8700,4705
6.8720,8434
6.8740,6065
6.8760,6721
6.8780,8466
6.8800,2000
6.8820,2432
6.8840,2304
6.8860,2912
6.8880,1216
6.8900,3616
6.8920,17476
6.8940,6785
6.8960,1872
6.8980,1792
6.9000,4785
6.9020,9250
6.9040,4625
6.9060,13267
6.9080,3776
6.9100,11970
6.9120,3216
6.9140,7825
6.9160,10674
6.9180,5025
6.9200,15811
6.9220,8418
6.9240,2560
6.9260,3584
6.9280,12451
6.9300,3280
6.9320,2880
6.9340,1968
6.9360,3632
6.9380,11266
6.9400,1744
6.9420,24565
6.9440,1872
6.9460,1296
6.9480,13267
6.9500,1440
6.9520,3248
6.9540,25238
6.9560,2592
6.9580,6065
6.9600,6625
6.9620,31399
6.9640,1568
6.9660,1696
6.9680,3920
6.9700,2688
6.9720,29895
6.9740,3664
6.9760,12435
6.9780,3872
6.9800,14227
6.9820,2656
6.9840,5281
6.9860,5745
6.9880,4321
6.9900,1824
6.9920,5089
6.9940,2944
6.9960,2320
6.9980,2464
7.0000,14883
7.0020,2048
7.0040,4273
7.0060,5345
7.0080,2144
7.0100,15571
7.0120,2464
7.0140,1872
7.0160,4129
7.0180,3136
7.0200,4657
7.0220,2960
7.0240,2912
7.0260,19684
7.0280,6049
7.0300,25238
7.0320,2768
7.0340,10386
7.0360,3104
7.0380,2000
7.0400,2944
7.0420,25046
7.0440,3424
7.0460,17636
7.0480,3680
7.0500,4913
7.0520,7937
7.0540,2480
7.0560,6913
7.0580,22149
7.0600,2896
7.0620,1632
7.0640,2384
7.0660,6593
7.0680,4785
7.0700,12931
7.0720,2864
7.0740,4048
7.0760,10962
7.0780,20068
7.0800,17492
7.0820,1664
7.0840,6753
7.0860,24565
7.0880,2592
7.0900,14227
7.0920,7457
7.0940,12867
7.0960,5345
7.0980,3184
7.1000,4257
7.1020,2512
7.1040,2368
7.1060,3488
7.1080,9250
7.1100,1888
7.1120,3584
7.1140,7857
7.1160,1104
7.1180,6273
7.1200,1888
7.1220,1920
7.1240,3344
7.1260,6033
7.1280,9298
7.1300,8177
7.1320,3744
7.1340,1968
7.1360,5857
7.1380,2272
7.1400,8290
7.1420,18708
7.1440,2480
7.1460,3664
7.1480,5809
7.1500,4321
7.1520,8722
7.1540,6881
7.1560,23445
7.1580,5681
7.1600,8674
7.1620,4641
7.1640,18644
7.1660,1728
7.1680,2496
7.1700,1968
7.1720,14003
7.1740,1392
7.1760,2944
7.1780,5441
7.1800,2928
7.1820,16211
7.1840,2064
7.1860,22021
7.1880,3200
7.1900,5537
7.1920,3264
7.1940,7057
7.1960,3728
7.1980,2208
7.2000,7681
7.2020,17364
7.2040,15299
7.2060,5025
7.2080,3216
7.2100,13267
7.2120,2464
7.2140,6753
7.2160,7057
7.2180,6529
7.2200,1664
7.2220,8834
7.2240,12979
7.2260,16852
7.2280,14803
7.2300,4737
7.2320,12499
7.2340,1616
7.2360,5153
7.2380,8177
7.2400,2496
7.2420,7569
7.2440,4385
7.2460,3504
7.2480,3136
7.2500,26006
7.2520,18836
7.2540,2960
7.2560,21749
7.2580,1728
7.2600,1824
7.2620,13667
7.2640,2432
7.2660,13891
7.2680,9410
7.2700,6785
7.2720,1616
7.2740,27974
7.2760,11842
7.2780,13699
7.2800,13459
7.2820,12931
7.2840,13107
7.2860,15955
7.2880,7233
7.2900,10386
7.2920,2912
7.2940,2048
7.2960,4833
7.2980,1728
7.3000,2080
7.3020,6801
7.3040,1648
7.3060,30599
7.3080,4113
7.3100,15331
7.3120,2112
7.3140,2496
7.3160,3392
7.3180,2784
7.3200,9570
7.3220,1520
7.3240,15267
7.3260,5425
7.3280,10146
7.3300,11554
7.3320,1424
7.3340,33352
7.3360,15235
7.3380,4769
7.3400,16227
7.3420,2608
7.3440,3744
7.3460,8962
7.3480,5681
7.3500,5281
7.3520,2464
7.3540,3888
7.3560,7473
7.3580,1408
7.3600,8065
7.3620,4241
7.3640,3152
7.3660,6017
7.3680,12066
7.3700,1696
7.3720,7617
7.3740,6017
7.3760,17844
7.3780,17076
7.3800,9010
7.3820,6673
7.3840,3808
7.3860,2080
7.3880,1824
7.3900,3680
7.3920,4353
7.3940,2064
7.3960,1520
7.3980,2336
7.4000,3616
7.4020,1632
7.4040,15107
7.4060,4929
7.4080,7345
7.4100,11138
7.4120,4753
7.4140,2336
7.4160,1696
7.4180,5633
7.4200,2720
7.4220,2896
7.4240,2352
7.4260,15251
7.4280,3904
7.4300,8962
7.4320,2912
7.4340,8177
7.4360,8658
7.4380,15891
7.4400,1584
7.4420,20196
7.4440,4241
7.4460,8177
7.4480,19924
7.4500,2080
7.4520,3152
7.4540,2992
7.4560,2512
7.4580,27942
7.4600,19860
7.4620,10978
7.4640,4401
7.4660,3248
7.4680,8322
7.4700,23477
7.4720,1808
7.4740,21941
7.4760,1744
7.4780,6017
7.4800,8065
7.4820,5473
7.4840,1856
7.4860,11314
7.4880,8290
7.4900,3600
7.4920,1776
7.4940,2224
7.4960,2144
7.4980,8354
7.5000,22053
7.5020,4000
7.5040,7745
7.5060,3264
7.5080,17668
7.5100,18244
7.5120,2656
7.5140,27238
7.5160,30791
7.5180,4481
7.5200,8994
7.5220,19412
7.5240,20244
7.5260,11570
7.5280,11314
7.5300,4273
7.5320,3456
7.5340,3648
7.5360,2912
7.5380,9442
7.5400,7041
7.5420,15347
7.5440,3328
7.5460,4225
7.5480,2208
7.5500,1920
7.5520,4865
7.5540,2336
7.5560,5249
7.5580,10146
7.5600,10770
7.5620,3296
7.5640,25222
7.5660,6225
7.5680,2816
7.5700,26150
7.5720,2784
7.5740,5777
7.5760,4753
7.5780,7505
7.5800,2176
7.5820,2096
7.5840,6065
7.5860,3168
7.5880,4401
7.5900,21557
7.5920,8210
7.5940,5809
7.5960,3872
7.5980,2640
7.6000,14835
7.6020,2464
7.6040,1632
7.6060,2176
7.6080,3248
7.6100,2336
7.6120,3472
7.6140,5265
7.6160,10882
7.6180,1760
7.6200,2144
7.6220,4609
7.6240,2000
7.6260,11874
7.6280,12995
7.6300,2640
7.6320,24822
7.6340,14163
7.6360,9762
7.6380,3456
7.6400,3360
7.6420,15011
7.6440,1584
7.6460,1552
7.6480,2320
7.6500,2688
7.6520,1232
7.6540,9186
7.6560,2912
7.6580,8065
7.6600,1968
7.6620,24614
7.6640,2864
7.6660,18244
7.6680,23813
7.6700,11794
7.6720,7361
7.6740,8274
7.6760,30055
7.6780,15283
7.6800,3872
7.6820,16259
7.6840,2000
7.6860,4577
7.6880,14595
7.6900,7425
7.6920,10946
7.6940,8930
7.6960,2304
7.6980,9554
7.7000,2096
7.7020,19540
7.7040,3856
7.7060,9618
7.7080,1488
7.7100,1840
7.7120,2128
7.7140,19460
7.7160,1584
7.7180,4641
7.7200,24838
7.7220,12627
7.7240,5153
7.7260,2480
7.7280,4064
7.7300,3248
7.7320,2384
7.7340,1776
7.7360,18788
7.7380,3808
7.7400,14035
7.7420,1632
7.7440,3248
7.7460,6273
7.7480,9954
7.7500,9474
7.7520,20292
7.7540,4897
7.7560,14931
7.7580,21557
7.7600,2320
7.7620,31319
7.7640,8914
7.7660,3088
7.7680,10690
7.7700,3536
7.7720,5217
7.7740,2848
7.7760,11746
7.7780,3360
7.7800,10498
7.7820,4753
7.7840,8177
7.7860,4113
7.7880,12963
7.7900,7569
7.7920,7217
7.7940,4481
7.7960,11554
7.7980,5393
7.8000,4897
7.8020,13459
7.8040,20805
7.8060,6225
7.8080,2176
7.8100,2192
7.8120,3136
7.8140,8418
7.8160,14035
7.8180,9218
7.8200,14643
7.8220,31191
7.8240,2240
7.8260,4785
7.8280,13139
7.8300,11234
7.8320,1296
7.8340,15843
7.8360,2208
7.8380,2640
7.8400,1328
7.8420,2976
7.8440,17252
7.8460,2448
7.8480,3216
7.8500,3152
7.8520,18196
7.8540,21221
7.8560,3616
7.8580,1968
7.8600,20100
7.8620,6241
7.8640,10306
7.8660,35976
7.8680,13443
7.8700,10194
7.8720,2096
7.8740,6353
7.8760,1664
7.8780,9074
7.8800,2080
7.8820,3888
7.8840,1328
7.8860,20629
7.8880,8994
7.8900,18564
7.8920,4801
7.8940,11474
7.8960,22565
7.8980,3536
7.9000,2384
7.9020,2768
7.9040,13731
7.9060,10802
7.9080,2352
7.9100,1760
7.9120,1776
7.9140,17236
7.9160,4609
7.9180,7777
7.9200,1936
7.9220,2448
7.9240,5537
7.9260,1792
7.9280,5313
7.9300,2816
7.9320,6769
7.9340,9906
7.9360,5073
7.9380,8706
7.9400,30647
7.9420,14259
7.9440,6849
7.9460,2240
7.9480,9346
7.9500,2144
7.9520,10930
7.9540,9010
7.9560,8065
7.9580,3968
7.9600,1984
7.9620,4273
7.9640,11938
7.9660,5185
7.9680,9602
7.9700,4064
7.9720,1968
7.9740,2224
7.9760,1744
7.9780,4000
7.9800,9794
7.9820,2688
7.9840,3088
7.9860,4385
7.9880,1968
7.9900,11074
7.9920,5665
7.9940,3632
7.9960,25654
7.9980,10450
8.0000,13443
8.0020,9378
8.0040,1488
8.0060,2352
8.0080,1792
8.0100,10514
8.0120,11282
8.0140,2928
8.0160,1952
8.0180,13859
8.0200,12787
8.0220,1968
8.0240,2352
8.0260,10834
8.0280,2016
8.0300,12675
8.0320,2592
8.0340,7249
8.0360,3664
8.0380,2688
8.0400,5953
8.0420,27094
8.0440,23301
8.0460,2624
8.0480,6865
8.0500,8530
8.0520,16564
8.0540,4513
8.0560,12114
8.0580,4609
8.0600,2944
8.0620,5697
8.0640,19748
8.0660,5601
8.0680,10050
8.0700,6305
8.0720,3280
8.0740,8402
8.0760,1888
8.0780,2784
8.0800,23301
8.0820,3728
8.0840,3824
8.0860,10242
8.0880,3744
8.0900,2480
8.0920,17860
8.0940,8017
8.0960,2208
8.0980,13507
8.1000,8177
8.1020,8578
8.1040,10322
8.1060,6705
8.1080,4177
8.1100,3664
8.1120,2224
8.1140,3216
8.1160,15715
8.1180,3264
8.1200,2736
8.1220,15747
8.1240,6097
8.1260,14051
8.1280,10514
8.1300,2784
8.1320,5505
8.1340,4849
8.1360,2624
8.1380,12851
8.1400,14115
8.1420,29591
8.1440,10530
8.1460,1536
8.1480,14627
8.1500,3264
8.1520,6017
8.1540,7825
8.1560,16692
8.1580,8658
8.1600,31415
8.1620,17540
8.1640,18516
8.1660,21045
8.1680,6625
8.1700,2464
8.1720,4737
8.1740,1312
8.1760,2688
8.1780,2368
8.1800,3232
8.1820,4305
8.1840,7313
8.1860,2416
8.1880,3488
8.1900,3088
8.1920,7393
8.1940,2672
8.1960,7265
8.1980,3392
8.2000,9346
8.2020,1952
8.2040,6977
8.2060,4385
8.2080,1904
8.2100,1616
8.2120,3872
8.2140,7649
8.2160,18772
8.2180,11698
8.2200,5153
8.2220,2528
8.2240,1936
8.2260,13667
8.2280,7041
8.2300,1584
8.2320,2448
8.2340,19332
8.2360,36024
8.2380,8674
8.2400,6577
8.2420,6625
8.2440,2640
8.2460,2960
8.2480,2720
8.2500,1744
8.2520,2976
8.2540,7329
8.2560,2096
8.2580,23525
8.2600,32904
8.2620,1888
8.2640,4385
8.2660,2368
8.2680,2944
8.2700,24197
8.2720,12114
8.2740,1920
8.2760,6593
8.2780,2880
8.2800,9090
8.2820,2208
8.2840,6849
8.2860,4433
8.2880,9330
8.2900,1232
8.2920,1936
8.2940,11714
8.2960,3904
8.2980,6929
8.3000,1552
8.3020,8754
8.3040,6337
8.3060,2688
8.3080,1680
8.3100,2688
8.3120,2688
8.3140,19812
8.3160,1920
8.3180,5297
8.3200,3088
8.3220,19092
8.3240,15891
8.3260,3264
8.3280,14931
8.3300,9874
8.3320,14723
8.3340,8177
8.3360,2656
8.3380,7137
8.3400,14083
8.3420,2496
8.3440,1920
8.3460,5313
8.3480,7105
8.3500,2288
8.3520,5553
8.3540,3776
8.3560,1600
8.3580,3104
8.3600,5729
8.3620,5665
8.3640,14243
8.3660,1872
8.3680,2368
8.3700,5297
8.3720,8706
8.3740,1664
8.3760,2608
8.3780,8258
8.3800,1952
8.3820,2688
8.3840,7297
8.3860,6833
8.3880,9570
8.3900,3328
8.3920,15395
8.3940,3936
8.3960,5937
8.3980,14371
8.4000,5153
8.4020,2816
8.4040,1280
8.4060,4913
8.4080,19172
8.4100,1552
8.4120,10210
8.4140,5729
8.4160,10530
8.4180,8482
8.4200,5105
8.4220,10546
8.4240,6897
8.4260,3584
8.4280,20036
8.4300,2992
8.4320,28486
8.4340,2432
8.4360,2656
8.4380,2096
8.4400,2096
8.4420,19476
8.4440,2512
8.4460,2176
8.4480,6209
8.4500,7041
8.4520,1840
8.4540,5441
8.4560,10962
8.4580,5073
8.4600,3488
8.4620,1712
8.4640,23317
8.4660,9266
8.4680,2368
8.4700,16452
8.4720,3568
8.4740,2256
8.4760,20148
8.4780,16852
8.4800,1984
8.4820,14435
8.4840,2576
8.4860,1856
8.4880,16339
8.4900,4929
8.4920,5121
8.4940,8001
8.4960,11986
8.4980,1856
8.5000,2816
8.5020,2112
8.5040,5697
8.5060,8578
8.5080,6465
8.5100,10258
8.5120,15827
8.5140,2928
8.5160,12082
8.5180,4449
8.5200,1488
8.5220,2592
8.5240,6353
8.5260,2784
8.5280,2784
8.5300,2048
8.5320,4913
8.5340,1680
8.5360,18388
8.5380,11938
8.5400,2352
8.5420,5921
8.5440,2336
8.5460,14275
8.5480,5857
8.5500,19076
8.5520,2912
8.5540,12050
8.5560,4273
8.5580,1856
8.5600,8177
8.5620,1616
8.5640,13203
8.5660,16147
8.5680,3824
8.5700,21173
8.5720,2832
8.5740,14531
8.5760,1376
8.5780,1952
8.5800,1840
8.5820,2080
8.5840,4113
8.5860,3024
8.5880,10338
8.5900,13731
8.5920,6305
8.5940,1664
8.5960,1920
8.5980,1872
8.6000,3264
8.6020,8017
8.6040,2368
8.6060,2064
8.6080,11938
8.6100,2480
8.6120,12739
8.6140,2592
8.6160,11042
8.6180,2400
8.6200,4577
8.6220,3648
8.6240,4209
8.6260,7217
8.6280,41530
8.6300,7681
8.6320,7457
8.6340,4865
8.6360,6065
8.6380,37737
8.6400,12002
8.6420,1776
8.6440,3728
8.6460,7873
8.6480,1856
8.6500,2384
8.6520,1552
8.6540,4497
8.6560,2784
8.6580,9282
8.6600,18564
8.6620,5553
8.6640,2000
8.6660,2304
8.6680,1680
8.6700,3232
8.6720,14355
8.6740,10930
8.6760,5633
8.6780,1472
8.6800,15123
8.6820,1344
8.6840,6113
8.6860,6785
8.6880,2864
8.6900,9746
8.6920,4497
8.6940,10098
8.6960,2608
8.6980,13475
8.7000,11218
8.7020,10178
8.7040,2256
8.7060,22341
8.7080,14947
8.7100,1808
8.7120,8514
8.7140,5553
8.7160,7265
8.7180,6753
8.7200,1472
8.7220,4705
8.7240,11906
8.7260,2864
8.7280,6193
8.7300,7105
8.7320,3280
8.7340,1232
8.7360,3168
8.7380,9282
8.7400,5905
8.7420,7169
8.7440,5857
8.7460,2048
8.7480,2816
8.7500,3904
8.7520,1488
8.7540,5969
8.7560,1632
8.7580,25942
8.7600,3968
8.7620,6641
8.7640,6273
8.7660,3280
8.7680,15587
8.7700,6065
8.7720,4000
8.7740,2576
8.7760,7105
8.7780,7537
8.7800,11154
8.7820,3328
8.7840,14643
8.7860,9426
8.7880,5473
8.7900,1792
8.7920,2512
8.7940,1936
8.7960,1344
8.7980,4785
8.8000,6865
8.8020,8466
8.8040,1856
8.8060,3392
8.8080,5249
8.8100,7473
8.8120,19012
8.8140,2272
8.8160,9554
8.8180,6417
8.8200,7201
8.8220,1760
8.8240,5233
8.8260,1792
8.8280,12675
8.8300,4801
8.8320,8177
8.8340,17124
8.8360,5169
8.8380,13411
8.8400,3360
8.8420,4545
8.8440,3136
8.8460,1728
8.8480,2080
8.8500,4689
8.8520,7345
8.8540,21685
8.8560,17700
8.8580,13283
8.8600,2480
8.8620,6449
8.8640,1568
8.8660,2064
8.8680,2256
8.8700,8177
8.8720,2784
8.8740,1440
8.8760,5569
8.8780,18836
8.8800,12162
8.8820,8177
8.8840,7969
8.8860,1360
8.8880,10898
8.8900,1424
8.8920,4785
8.8940,12755
8.8960,7809
8.8980,1680
8.9000,2048
8.9020,7377
8.9040,2128
8.9060,9954
8.9080,10562
8.9100,6865
8.9120,1584
8.9140,3344
8.9160,3872
8.9180,4321
8.9200,1504
8.9220,4385
8.9240,8626
8.9260,3296
8.9280,4449
8.9300,8065
8.9320,10146
8.9340,14995
8.9360,2144
8.9380,6897
8.9400,7313
8.9420,6241
8.9440,14787
8.9460,11778
8.9480,20821
8.9500,13139
8.9520,4369
8.9540,2976
8.9560,9698
8.9580,4977
8.9600,6497
8.9620,9506
8.9640,2048
8.9660,1552
8.9680,4048
8.9700,1344
8.9720,7361
8.9740,16355
8.9760,3088
8.9780,4561
8.9800,13187
8.9820,5409
8.9840,11170
8.9860,2128
8.9880,1472
8.9900,15187
8.9920,7009
8.9940,16307
8.9960,6161
8.9980,21093
9.0000,8274
9.0020,14883
9.0040,9250
9.0060,2912
9.0080,3984
9.0100,1952
9.0120,11394
9.0140,9234
9.0160,11666
9.0180,8177
9.0200,7921
9.0220,3792
9.0240,4481
9.0260,1552
9.0280,1280
9.0300,14259
9.0320,2336
9.0340,6161
9.0360,3440
9.0380,8194
9.0400,2688
9.0420,2000
9.0440,1920
9.0460,2080
9.0480,17412
9.0500,17716
9.0520,7265
9.0540,8065
9.0560,1552
9.0580,1792
9.0600,2608
9.0620,13011
9.0640,2400
9.0660,2464
9.0680,5473
9.0700,3376
9.0720,2464
9.0740,1440
9.0760,2768
9.0780,5633
9.0800,5185
9.0820,27878
9.0840,3616
9.0860,1840
9.0880,4913
9.0900,3952
9.0920,2320
9.0940,1936
9.0960,1552
9.0980,2432
9.1000,2608
9.1020,5137
9.1040,2128
9.1060,9298
9.1080,3056
9.1100,6465
9.1120,1440
9.1140,4961
9.1160,1744
9.1180,4945
9.1200,1664
9.1220,2096
9.1240,2016
9.1260,3584
9.1280,1328
9.1300,24565
9.1320,14403
9.1340,2720
9.1360,2064
9.1380,1232
9.1400,11138
9.1420,1712
9.1440,2864
9.1460,7745
9.1480,4401
9.1500,9938
9.1520,5041
9.1540,6161
9.1560,1984
9.1580,2720
9.1600,20036
9.1620,5521
9.1640,6993
9.1660,2656
9.1680,2592
9.1700,24758
9.1720,2736
9.1740,3984
9.1760,17668
9.1780,4129
9.1800,14371
9.1820,1344
9.1840,1360
9.1860,4545
9.1880,2736
9.1900,6673
9.1920,24005
9.1940,3248
9.1960,4241
9.1980,5953
9.2000,3856
9.2020,7297
9.2040,5905
9.2060,4929
9.2080,5809
9.2100,2256
9.2120,6721
9.2140,3392
9.2160,2368
9.2180,6657
9.2200,2544
9.2220,1840
9.2240,3424
9.2260,6849
9.2280,6337
9.2300,2896
9.2320,2432
9.2340,20725
9.2360,21349
9.2380,5729
9.2400,8610
9.2420,2448
9.2440,16355
9.2460,4945
9.2480,2816
9.2500,14307
9.2520,1664
9.2540,3312
9.2560,2912
9.2580,8850
9.2600,8177
9.2620,2000
9.2640,2816
9.2660,10258
9.2680,8194
9.2700,2016
9.2720,1328
9.2740,2448
9.2760,2496
9.2780,8210
9.2800,10626
9.2820,2416
9.2840,9426
9.2860,7041
9.2880,3072
9.2900,8242
9.2920,3296
9.2940,1760
9.2960,2432
9.2980,1952
9.3000,22101
9.3020,12723
9.3040,6289
9.3060,1552
9.3080,4577
9.3100,3952
9.3120,1904
9.3140,3248
9.3160,23525
9.3180,10178
9.3200,9058
9.3220,1456
9.3240,3536
9.3260,3600
9.3280,7889
9.3300,1472
9.3320,3024
9.3340,2944
9.3360,1760
9.3380,2352
9.3400,9474
9.3420,1584
9.3440,1408
9.3460,1888
9.3480,12419
9.3500,2176
9.3520,2640
9.3540,11202
9.3560,1856
9.3580,8370
9.3600,11138
9.3620,8610
9.3640,25238
9.3660,3088
9.3680,7137
9.3700,5905
9.3720,6641
9.3740,16468
9.3760,6273
9.3780,1792
9.3800,2112
9.3820,6353
9.3840,1680
9.3860,7249
9.3880,3088
9.3900,7889
9.3920,3040
9.3940,11426
9.3960,2688
9.3980,15571
9.4000,1424
9.4020,15683
9.4040,2128
9.4060,3344
9.4080,2400
9.4100,7841
9.4120,8466
9.4140,12162
9.4160,15395
9.4180,17172
9.4200,8786
9.4220,4641
9.4240,1616
9.4260,11490
9.4280,13619
9.4300,5409
9.4320,27126
9.4340,17620
9.4360,5361
9.4380,8898
9.4400,10930
9.4420,11234
9.4440,3200
9.4460,11330
9.4480,3536
9.4500,10146
9.4520,6145
9.4540,1888
9.4560,2192
9.4580,8962
9.4600,2320
9.4620,14595
9.4640,1856
9.4660,10258
9.4680,1504
9.4700,1328
9.4720,8402
9.4740,7841
9.4760,5473
9.4780,3024
9.4800,23141
9.4820,20100
9.4840,2112
9.4860,5377
9.4880,1728
9.4900,6289
9.4920,17812
9.4940,1744
9.4960,17508
9.4980,5073
9.5000,16227
9.5020,5473
9.5040,6561
9.5060,4113
9.5080,4833
9.5100,3552
9.5120,4273
9.5140,2384
9.5160,13587
9.5180,7601
9.5200,7985
9.5220,8578
9.5240,13203
9.5260,2272
9.5280,1504
9.5300,2000
9.5320,992
9.5340,7841
9.5360,1744
9.5380,4625
9.5400,6241
9.5420,6017
9.5440,5297
9.5460,1472
9.5480,2064
9.5500,4641
9.5520,6865
9.5540,8161
9.5560,4881
9.5580,2816
9.5600,2784
9.5620,1568
9.5640,2576
9.5660,3328
9.5680,2368
9.5700,3664
9.5720,12579
9.5740,17764
9.5760,12082
9.5780,8177
9.5800,7441
9.5820,8402
9.5840,7041
9.5860,3424
9.5880,11714
9.5900,17268
9.5920,17236
9.5940,5953
9.5960,9634
9.5980,5937
9.6000,1808
9.6020,11538
9.6040,4337
9.6060,7617
9.6080,2256
9.6100,6529
9.6120,3024
9.6140,4369
9.6160,10578
9.6180,1536
9.6200,3424
9.6220,2848
9.6240,15091
9.6260,9042
9.6280,1952
9.6300,14979
9.6320,2832
9.6340,14867
9.6360,1920
9.6380,2832
9.6400,1584
9.6420,4577
9.6440,3472
9.6460,2240
9.6480,3168
9.6500,23141
9.6520,6993
9.6540,5505
9.6560,7905
9.6580,1824
9.6600,3296
9.6620,2016
9.6640,3328
9.6660,15731
9.6680,4241
9.6700,25110
9.6720,3088
9.6740,11474
9.6760,7681
9.6780,12114
9.6800,12098
9.6820,2256
9.6840,6401
9.6860,1616
9.6880,5473
9.6900,15267
9.6920,1664
9.6940,4785
9.6960,11154
9.6980,10274
9.7000,11906
9.7020,4097
9.7040,1680
9.7060,3760
9.7080,2816
9.7100,3680
9.7120,1984
9.7140,11858
9.7160,2016
9.7180,2464
9.7200,1712
9.7220,2816
9.7240,2672
9.7260,5009
9.7280,4881
9.7300,8898
9.7320,3248
9.7340,3424
9.7360,1776
9.7380,8081
9.7400,3728
9.7420,1472
9.7440,4785
9.7460,1968
9.7480,8658
9.7500,13363
9.7520,1872
9.7540,6433
9.7560,10338
9.7580,20132
9.7600,2560
9.7620,5201
9.7640,12307
9.7660,1616
9.7680,5985
9.7700,3712
9.7720,4689
9.7740,1568
9.7760,8065
9.7780,2896
9.7800,9826
9.7820,6369
9.7840,2176
9.7860,7889
9.7880,3088
9.7900,3840
9.7920,10706
9.7940,2496
9.7960,2000
9.7980,1808
9.8000,2768
9.8020,2512
9.8040,2304
9.8060,2576
9.8080,1952
9.8100,3248
9.8120,3360
9.8140,1696
9.8160,6177
9.8180,3024
9.8200,6977
9.8220,22629
9.8240,1808
9.8260,32551
9.8280,2704
9.8300,2864
9.8320,2256
9.8340,1872
9.8360,6497
9.8380,1648
9.8400,8242
9.8420,2000
9.8440,2256
9.8460,11906
9.8480,4129
9.8500,5969
9.8520,10434
9.8540,11730
9.8560,4161
9.8580,1472
9.8600,17172
9.8620,3136
9.8640,2448
9.8660,1440
9.8680,11090
9.8700,16083
9.8720,3136
9.8740,4321
9.8760,1888
9.8780,10546
9.8800,9522
9.8820,4353
9.8840,2000
9.8860,4225
9.8880,8177
9.8900,5953
9.8920,6097
9.8940,9986
9.8960,15571
9.8980,8274
9.9000,6865
9.9020,1952
9.9040,8898
9.9060,9538
9.9080,5985
9.9100,20372
9.9120,2048
9.9140,1664
9.9160,2064
9.9180,7745
9.9200,5313
9.9220,7313
9.9240,9826
9.9260,6289
9.9280,1760
9.9300,4080
9.9320,1328
9.9340,2016
9.9360,1920
9.9380,5825
9.9400,6817
9.9420,1840
9.9440,5937
9.9460,3360
9.9480,1536
9.9500,15907
9.9520,13315
9.9540,2720
9.9560,4673
9.9580,11042
9.9600,3856
9.9620,2496
9.9640,3600
9.9660,8706
9.9680,9810
9.9700,4801
9.9720,7777
9.9740,3424
9.9760,5857
9.9780,2976
9.9800,1984
9.9820,4417
9.9840,1920
9.9860,2320
9.9880,19028
9.9900,3776
9.9920,6065
9.9940,6561
9.9960,2496
9.9980,8194
10.0000,4945
10.0020,3328
10.0040,2304
10.0060,2192
10.0080,5649
10.0100,10626
10.0120,1664
10.0140,2864
10.0160,3712
10.0180,2176
10.0200,8514
10.0220,6161
10.0240,2352
10.0260,11106
10.0280,2928
10.0300,7841
10.0320,1984
10.0340,2768
10.0360,5249
10.0380,2080
10.0400,1488
10.0420,1680
10.0440,10450
10.0460,2096
10.0480,4849
10.0500,1984
10.0520,22837
10.0540,7553
10.0560,11682
10.0580,5393
10.0600,3616
10.0620,4641
10.0640,8194
10.0660,8450
10.0680,3792
10.0700,9010
10.0720,10882
10.0740,14067
10.0760,11282
10.0780,1824
10.0800,1600
10.0820,2688
10.0840,1728
10.0860,6273
10.0880,2368
10.0900,1424
10.0920,2320
10.0940,2320
10.0960,3296
10.0980,5521
10.1000,15059
10.1020,2880
10.1040,1840
10.1060,11778
10.1080,1280
10.1100,13699
10.1120,14851
10.1140,1072
10.1160,20404
10.1180,16067
10.1200,4048
10.1220,5969
10.1240,5009
10.1260,3472
10.1280,2608
10.1300,11778
10.1320,20485
10.1340,3616
10.1360,10498
10.1380,9970
10.1400,1424
10.1420,2256
10.1440,8177
10.1460,1424
10.1480,6353
10.1500,1984
10.1520,18116
10.1540,2208
10.1560,2208
10.1580,1776
10.1600,2880
10.1620,2384
10.1640,6705
10.1660,16612
10.1680,17124
10.1700,2816
10.1720,21957
10.1740,15635
10.1760,3488
10.1780,3152
10.1800,13331
10.1820,15171
10.1840,3632
10.1860,2192
10.1880,4241
10.1900,2624
10.1920,2432
10.1940,1296
10.1960,2336
10.1980,2112
10.2000,11650
10.2020,2576
10.2040,4064
10.2060,1952
10.2080,7057
10.2100,18484
10.2120,16532
10.2140,14947
10.2160,4657
10.2180,1840
10.2200,3200
10.2220,1376
10.2240,2240
10.2260,1888
10.2280,4593
10.2300,2368
10.2320,2432
10.2340,4689
10.2360,4193
10.2380,4385
10.2400,1536
10.2420,7729
10.2440,4129
10.2460,5633
10.2480,3984
10.2500,2128
10.2520,6577
10.2540,2736
10.2560,3488
10.2580,3616
10.2600,1488
10.2620,4513
10.2640,6145
10.2660,1792
10.2680,2400
10.2700,1920
10.2720,15939
10.2740,11490
10.2760,4497
10.2780,7041
10.2800,5521
10.2820,2512
10.2840,2384
10.2860,8642
10.2880,2736
10.2900,2000
10.2920,11858
10.2940,8562
10.2960,2224
10.2980,1360
10.3000,2480
10.3020,2368
10.3040,3376
10.3060,1936
10.3080,2688
10.3100,2576
10.3120,5185
10.3140,7569
10.3160,2368
10.3180,2128
10.3200,4737
10.3220,8370
10.3240,1760
10.3260,1968
10.3280,7425
10.3300,5601
10.3320,4673
10.3340,1872
10.3360,2096
10.3380,3120
10.3400,11394
10.3420,1968
10.3440,4465
10.3460,2640
10.3480,1024
10.3500,1824
10.3520,1872
10.3540,2240
10.3560,3024
10.3580,1424
10.3600,2384
10.3620,1952
10.3640,1872
10.3660,4529
10.3680,3456
10.3700,5201
10.3720,9042
10.3740,2336
10.3760,5441
10.3780,4673
10.3800,2832
10.3820,1824
10.3840,2976
10.3860,2272
10.3880,1568
10.3900,3328
10.3920,6017
10.3940,4113
10.3960,12579
10.3980,1488
10.4000,2192
10.4020,2720
10.4040,2096
10.4060,2448
10.4080,6241
10.4100,5857
10.4120,3024
10.4140,1168
10.4160,1696
10.4180,1936
10.4200,1840
10.4220,2416
10.4240,1328
10.4260,3104
10.4280,1552
10.4300,1856
10.4320,2496
10.4340,4305
10.4360,1456
10.4380,3216
10.4400,5601
10.4420,7825
10.4440,3504
10.4460,2688
10.4480,2128
10.4500,1936
10.4520,1968
10.4540,2336
10.4560,1920
10.4580,3728
10.4600,1536
10.4620,6881
10.4640,2976
10.4660,1744
10.4680,3504
10.4700,2496
10.4720,1216
10.4740,2048
10.4760,1504
10.4780,2992
10.4800,3072
10.4820,1872
10.4840,1488
10.4860,1104
10.4880,1680
10.4900,7633
10.4920,5473
10.4940,2144
10.4960,1296
10.4980,1872
10.5000,2464
10.5020,1632
10.5040,3600
10.5060,6577
10.5080,1680
10.5100,1616
10.5120,3200
10.5140,1472
10.5160,1600
10.5180,2112
10.5200,3408
10.5220,2208
10.5240,2624
10.5260,2528
10.5280,2608
10.5300,3792
10.5320,3920
10.5340,2192
10.5360,1792
10.5380,2096
10.5400,3104
10.5420,1920
10.5440,2576
10.5460,2816
10.5480,3632
10.5500,2752
10.5520,1632
10.5540,1504
10.5560,1568
10.5580,2096
10.5600,2944
10.5620,1360
10.5640,2448
10.5660,2224
10.5680,1936
10.5700,2256
10.5720,1856
10.5740,1456
10.5760,3392
10.5780,1680
10.5800,1824
10.5820,4881
10.5840,4529
10.5860,2416
10.5880,1504
10.5900,2128
10.5920,1376
10.5940,1984
10.5960,2896
10.5980,3136
10.6000,2192
10.6020,4048
10.6040,1664
10.6060,1888
10.6080,2352
10.6100,2128
10.6120,2048
10.6140,4241
10.6160,4897
10.6180,2832
10.6200,2016
10.6220,2384
10.6240,2848
10.6260,1760
10.6280,1872
10.6300,7089
10.6320,2176
10.6340,3360
10.6360,1200
10.6380,3456
10.6400,1760
10.6420,2688
10.6440,3424
10.6460,1456
10.6480,5585
10.6500,3104
10.6520,1888
10.6540,2112
10.6560,2128
10.6580,1216
10.6600,1584
10.6620,1728
10.6640,1120
10.6660,4289
10.6680,3680
10.6700,1472
10.6720,2528
10.6740,3840
10.6760,2960
10.6780,3984
10.6800,2112
10.6820,1728
10.6840,1472
10.6860,1104
10.6880,1280
10.6900,4289
10.6920,3200
10.6940,1552
10.6960,5985
10.6980,1584
10.7000,1824
10.7020,5153
10.7040,2096
10.7060,1584
10.7080,1280
10.7100,2640
10.7120,2224
10.7140,1984
10.7160,1856
10.7180,2576
10.7200,1632
10.7220,1488
10.7240,2304
10.7260,1632
10.7280,2112
10.7300,1232
10.7320,2304
10.7340,928
10.7360,1552
10.7380,4689
10.7400,3504
10.7420,1536
10.7440,1216
10.7460,2240
10.7480,1696
10.7500,4209
10.7520,3024
10.7540,1920
10.7560,1088
10.7580,6465
10.7600,4016
10.7620,2848
10.7640,1856
10.7660,1360
10.7680,1504
10.7700,1184
10.7720,1616
10.7740,1216
10.7760,1184
10.7780,1616
10.7800,2064
10.7820,1888
10.7840,1536
10.7860,1840
10.7880,1472
10.7900,1856
10.7920,1840
10.7940,1504
10.7960,1920
10.7980,1312
10.8000,1120
10.8020,1264
10.8040,1312
10.8060,1232
10.8080,1456
10.8100,1504
10.8120,1168
10.8140,1360
10.8160,1952
10.8180,1952
10.8200,1488
10.8220,1856
10.8240,1728
10.8260,1696
10.8280,992
10.8300,1408
10.8320,1248
10.8340,1824
10.8360,1936
10.8380,2192
10.8400,1232
10.8420,4113
10.8440,5345
10.8460,3872
10.8480,2800
10.8500,1888
10.8520,1344
10.8540,1488
10.8560,1168
10.8580,1056
10.8600,1808
10.8620,2000
10.8640,5073
10.8660,1952
10.8680,3888
10.8700,2192
10.8720,1824
10.8740,3360
10.8760,3008
10.8780,1824
10.8800,1312
10.8820,1696
10.8840,1712
10.8860,3968
10.8880,4529
10.8900,1824
10.8920,1104
10.8940,1888
10.8960,1984
10.8980,1488
10.9000,1824
10.9020,3760
10.9040,1968
10.9060,5793
10.9080,1488
10.9100,1440
10.9120,2016
10.9140,1248
10.9160,1840
10.9180,1232
10.9200,1840
10.9220,1056
10.9240,12771
10.9260,12114
10.9280,1728
10.9300,1504
10.9320,1584
10.9340,1856
10.9360,1680
10.9380,1616
10.9400,1488
10.9420,1408
10.9440,3088
10.9460,1120
10.9480,1344
10.9500,1088
10.9520,1280
10.9540,2080
10.9560,2400
10.9580,992
10.9600,1248
10.9620,2080
10.9640,1888
10.9660,4577
10.9680,5521
10.9700,2128
10.9720,2352
10.9740,2032
10.9760,1600
10.9780,1344
10.9800,1056
10.9820,1456
10.9840,1872
10.9860,1744
10.9880,1056
10.9900,1216
10.9920,2320
10.9940,1072
10.9960,4000
10.9980,1616
11.0000,2320
11.0020,1792
11.0040,3200
11.0060,2064
11.0080,2448
11.0100,1440
11.0120,1504
11.0140,2176
11.0160,1408
11.0180,1408
11.0200,1536
11.0220,1696
11.0240,1792
11.0260,3760
11.0280,2064
11.0300,1552
11.0320,2560
11.0340,6097
11.0360,1520
11.0380,1968
11.0400,1984
11.0420,1472
11.0440,1680
11.0460,1200
11.0480,1184
11.0500,1552
11.0520,1344
11.0540,1024
11.0560,1728
11.0580,1472
11.0600,1296
11.0620,1424
11.0640,1216
11.0660,1680
11.0680,2688
11.0700,1664
11.0720,2752
11.0740,1888
11.0760,6145
11.0780,2384
11.0800,2576
11.0820,6177
11.0840,1712
11.0860,1696
11.0880,3040
11.0900,1856
11.0920,1760
11.0940,2400
11.0960,1312
11.0980,3328
11.1000,1824
11.1020,3104
11.1040,1056
11.1060,1248
11.1080,1104
11.1100,1792
11.1120,1888
11.1140,2080
11.1160,1536
11.1180,1040
11.1200,2496
11.1220,1216
11.1240,3328
11.1260,1760
11.1280,1232
11.1300,1232
11.1320,2320
11.1340,1184
11.1360,1824
11.1380,2288
11.1400,1840
11.1420,656
11.1440,5265
11.1460,2240
11.1480,3168
11.1500,4145
11.1520,4625
11.1540,1488
11.1560,1232
11.1580,3008
11.1600,1696
11.1620,2112
11.1640,1664
11.1660,1104
11.1680,1824
11.1700,3744
11.1720,3520
11.1740,5121
11.1760,2528
11.1780,2208
11.1800,1552
11.1820,1312
11.1840,2592
11.1860,1568
11.1880,1728
11.1900,1840
11.1920,3984
11.1940,1728
11.1960,1584
11.1980,1776
11.2000,1296
11.2020,1568
11.2040,2768
11.2060,2336
11.2080,1536
11.2100,1664
11.2120,1616
11.2140,2176
11.2160,1360
11.2180,1552
11.2200,1680
11.2220,1504
11.2240,1040
11.2260,4000
11.2280,2528
11.2300,1552
11.2320,1728
11.2340,1744
11.2360,1360
11.2380,1456
11.2400,1232
11.2420,1568
11.2440,1872
11.2460,1040
11.2480,1712
11.2500,1936
11.2520,2768
11.2540,1312
11.2560,1056
11.2580,2048
11.2600,1312
11.2620,1584
11.2640,3328
11.2660,1184
11.2680,3568
11.2700,1328
11.2720,1472
11.2740,1072
11.2760,1792
11.2780,1072
11.2800,1312
11.2820,8177
11.2840,4545
11.2860,10898
11.2880,4529
11.2900,1648
11.2920,1728
11.2940,1936
11.2960,1696
11.2980,1312
11.3000,1696
11.3020,1072
11.3040,1360
11.3060,1744
11.3080,1712
11.3100,1536
11.3120,1952
11.3140,2000
11.3160,1104
11.3180,1408
11.3200,2112
11.3220,2000
11.3240,1632
11.3260,1200
11.3280,2112
11.3300,1680
11.3320,1568
11.3340,1040
11.3360,4161
11.3380,3216
11.3400,2192
11.3420,1504
11.3440,1536
11.3460,1536
11.3480,1600
11.3500,1888
11.3520,1824
11.3540,2128
11.3560,2000
11.3580,1376
11.3600,1680
11.3620,7873
11.3640,1200
11.3660,2800
11.3680,1728
11.3700,2560
11.3720,2592
11.3740,992
11.3760,1984
11.3780,1456
11.3800,1376
11.3820,1824
11.3840,7617
11.3860,3536
11.3880,4305
11.3900,1696
11.3920,1456
11.3940,1568
11.3960,1328
11.3980,1808
11.4000,2592
11.4020,1488
11.4040,1728
11.4060,1600
11.4080,7905
11.4100,2432
11.4120,1696
11.4140,2768
11.4160,1824
11.4180,1120
11.4200,2256
11.4220,2304
11.4240,1504
11.4260,1872
11.4280,1456
11.4300,1584
11.4320,2112
11.4340,2048
11.4360,1456
11.4380,2832
11.4400,2064
11.4420,2448
11.4440,1680
11.4460,1264
11.4480,1184
11.4500,1472
11.4520,1360
11.4540,2224
11.4560,1744
11.4580,1296
11.4600,1712
11.4620,2272
11.4640,2224
11.4660,1344
11.4680,1744
11.4700,1408
11.4720,2272
11.4740,1888
11.4760,1680
11.4780,3376
11.4800,1984
11.4820,1760
11.4840,1104
11.4860,5409
11.4880,1936
11.4900,960
11.4920,3296
11.4940,1696
11.4960,1264
11.4980,1568
11.5000,1312
11.5020,1664
11.5040,2112
11.5060,2512
11.5080,1600
11.5100,3808
11.5120,2208
11.5140,2656
11.5160,5249
11.5180,2208
11.5200,1072
11.5220,3920
11.5240,1216
11.5260,1120
11.5280,2352
11.5300,1712
11.5320,1376
11.5340,1248
11.5360,1504
11.5380,1168
11.5400,1472
11.5420,1808
11.5440,2224
11.5460,3328
11.5480,1456
11.5500,1824
11.5520,1600
11.5540,1424
11.5560,1808
11.5580,1168
11.5600,1744
11.5620,1280
11.5640,1680
11.5660,2400
11.5680,1232
11.5700,1600
11.5720,1152
11.5740,2368
11.5760,1440
11.5780,2048
11.5800,1744
11.5820,3520
11.5840,1888
11.5860,1360
11.5880,1216
11.5900,1328
11.5920,1248
11.5940,1360
11.5960,6609
11.5980,3552
11.6000,2656
11.6020,1296
11.6040,1456
11.6060,1440
11.6080,1408
11.6100,1280
11.6120,1328
11.6140,4257
11.6160,1344
11.6180,3552
11.6200,1552
11.6220,1872
11.6240,2368
11.6260,1552
11.6280,3360
11.6300,1104
11.6320,1488
11.6340,1632
11.6360,1360
11.6380,1104
11.6400,1280
11.6420,2448
11.6440,1488
11.6460,1952
11.6480,1424
11.6500,1408
11.6520,1728
11.6540,1440
11.6560,1296
11.6580,1712
11.6600,2912
11.6620,960
11.6640,1296
11.6660,1760
11.6680,4080
11.6700,1392
11.6720,1552
11.6740,2192
11.6760,1536
11.6780,1616
11.6800,1664
11.6820,2000
11.6840,5537
11.6860,2272
11.6880,5281
11.6900,3232
11.6920,9538
11.6940,2224
11.6960,1248
11.6980,2384
11.7000,2576
11.7020,1760
11.7040,1200
11.7060,1728
11.7080,1712
11.7100,2048
11.7120,1184
11.7140,3792
11.7160,1568
11.7180,2944
11.7200,3120
11.7220,1920
11.7240,2224
11.7260,1808
11.7280,1456
11.7300,1632
11.7320,2096
11.7340,1296
11.7360,1728
11.7380,1232
11.7400,2464
11.7420,1072
11.7440,2768
11.7460,1312
11.7480,1280
11.7500,2224
11.7520,2912
11.7540,1168
11.7560,1920
11.7580,1392
11.7600,1760
11.7620,1328
11.7640,1280
11.7660,992
11.7680,2416
11.7700,1920
11.7720,1632
11.7740,1200
11.7760,1104
11.7780,1536
11.7800,1600
11.7820,4257
11.7840,5169
11.7860,2096
11.7880,1456
11.7900,1136
11.7920,1360
11.7940,1248
11.7960,1568
11.7980,2528
11.8000,1168
11.8020,1472
11.8040,6145
11.8060,1264
11.8080,5121
11.8100,1936
11.8120,1104
11.8140,1872
11.8160,1760
11.8180,1216
11.8200,1280
11.8220,1056
11.8240,2096
11.8260,2096
11.8280,4193
11.8300,1216
11.8320,1968
11.8340,1168
11.8360,2272
11.8380,1536
11.8400,1248
11.8420,960
11.8440,1296
11.8460,1504
11.8480,1184
11.8500,1712
11.8520,1200
11.8540,1344
11.8560,1424
11.8580,992
11.8600,2816
11.8620,1968
11.8640,1360
11.8660,1600
11.8680,1984
11.8700,1040
11.8720,2128
11.8740,1360
11.8760,1920
11.8780,1584
11.8800,1712
11.8820,1296
11.8840,2208
11.8860,2848
11.8880,1888
11.8900,1760
11.8920,1040
11.8940,2576
11.8960,2064
11.8980,1264
11.9000,1504
11.9020,1360
11.9040,1440
11.9060,1584
11.9080,1696
11.9100,1056
11.9120,2256
11.9140,1552
11.9160,1392
11.9180,1568
11.9200,2320
11.9220,1840
11.9240,6161
11.9260,4064
11.9280,1536
11.9300,2272
11.9320,2464
11.9340,2848
11.9360,3840
11.9380,1248
11.9400,1152
11.9420,1856
11.9440,1424
11.9460,6673
11.9480,2128
11.9500,1072
11.9520,1472
11.9540,1616
11.9560,3248
11.9580,1792
11.9600,1248
11.9620,1792
11.9640,3328
11.9660,1312
11.9680,1104
11.9700,1360
11.9720,1120
11.9740,2160
11.9760,8065
11.9780,7361
11.9800,2528
11.9820,2208
11.9840,1472
11.9860,2848
11.9880,1200
11.9900,5921
11.9920,5809
11.9940,3072
11.9960,1712
11.9980,976
12.0000,1728
12.0020,1088
12.0040,736
12.0060,1136
12.0080,1248
12.0100,1776
12.0120,1280
12.0140,1664
12.0160,2240
12.0180,1424
12.0200,2352
12.0220,1840
12.0240,1056
12.0260,2736
12.0280,1408
12.0300,3376
12.0320,1792
12.0340,1760
12.0360,1888
12.0380,1792
12.0400,1776
12.0420,1712
12.0440,1936
12.0460,2064
12.0480,1440
12.0500,1792
12.0520,1680
12.0540,2080
12.0560,2432
12.0580,1888
12.0600,1552
12.0620,1472
12.0640,1696
12.0660,1600
12.0680,2096
12.0700,1568
12.0720,1184
12.0740,1168
12.0760,1600
12.0780,1520
12.0800,2272
12.0820,2048
12.0840,1552
12.0860,1088
12.0880,1856
12.0900,1584
12.0920,1360
12.0940,1616
12.0960,1456
12.0980,2688
12.1000,1280
12.1020,1808
12.1040,1792
12.1060,2096
12.1080,1728
12.1100,4769
12.1120,9154
12.1140,1184
12.1160,2480
12.1180,1664
12.1200,1936
12.1220,1344
12.1240,1632
12.1260,5153
12.1280,1568
12.1300,1536
12.1320,1680
12.1340,2336
12.1360,1808
12.1380,1232
12.1400,2192
12.1420,1936
12.1440,1312
12.1460,1760
12.1480,4273
12.1500,4177
12.1520,1872
12.1540,1952
12.1560,2416
12.1580,2224
12.1600,3344
12.1620,1760
12.1640,1344
12.1660,1664
12.1680,1488
12.1700,1472
12.1720,1600
12.1740,1248
12.1760,864
12.1780,1104
12.1800,1872
12.1820,2960
12.1840,2624
12.1860,1840
12.1880,1584
12.1900,1360
12.1920,1744
12.1940,1248
12.1960,1216
12.1980,1296
12.2000,6625
12.2020,1296
12.2040,1664
12.2060,1360
12.2080,1696
12.2100,1440
12.2120,1312
12.2140,1104
12.2160,1280
12.2180,1840
12.2200,1360
12.2220,1456
12.2240,7009
12.2260,1120
12.2280,1456
12.2300,1472
12.2320,1776
12.2340,1440
12.2360,1040
12.2380,1600
12.2400,1408
12.2420,1456
12.2440,4433
12.2460,2992
12.2480,1232
12.2500,1968
12.2520,1808
12.2540,1744
12.2560,1952
12.2580,1520
12.2600,1456
12.2620,1616
12.2640,1760
12.2660,1536
12.2680,784
12.2700,1616
12.2720,1472
12.2740,5729
12.2760,4737
12.2780,1232
12.2800,1168
12.2820,1440
12.2840,1280
12.2860,1616
12.2880,3040
12.2900,2336
12.2920,1568
12.2940,1552
12.2960,1296
12.2980,1504
12.3000,1488
12.3020,1856
12.3040,1952
12.3060,3328
12.3080,2912
12.3100,2096
12.3120,2576
12.3140,1952
12.3160,1424
12.3180,2096
12.3200,1200
12.3220,1632
12.3240,2592
12.3260,2000
12.3280,2640
12.3300,1104
12.3320,5425
12.3340,3536
12.3360,1984
12.3380,1472
12.3400,2064
12.3420,3392
12.3440,3168
12.3460,1616
12.3480,2608
12.3500,1040
12.3520,1536
12.3540,1536
12.3560,1296
12.3580,2000
12.3600,1280
12.3620,1424
12.3640,1408
12.3660,944
12.3680,1472
12.3700,1312
12.3720,1456
12.3740,3520
12.3760,1440
12.3780,1488
12.3800,1952
12.3820,1616
12.3840,1616
12.3860,1120
12.3880,1104
12.3900,1360
12.3920,2192
12.3940,1424
12.3960,2320
12.3980,3552
12.4000,1648
12.4020,2144
12.4040,1344
12.4060,1056
12.4080,1952
12.4100,1424
12.4120,976
12.4140,4225
12.4160,1744
12.4180,1248
12.4200,1504
12.4220,1232
12.4240,1120
12.4260,1888
12.4280,1376
12.4300,1296
12.4320,1712
12.4340,1728
12.4360,2432
12.4380,2112
12.4400,1296
12.4420,7185
12.4440,1872
12.4460,1120
12.4480,1376
12.4500,2736
12.4520,1760
12.4540,1200
12.4560,1312
12.4580,1184
12.4600,1248
12.4620,2480
12.4640,1696
12.4660,1632
12.4680,1984
12.4700,1216
12.4720,1312
12.4740,1984
12.4760,1328
12.4780,1728
12.4800,1440
12.4820,1184
12.4840,2080
12.4860,1360
12.4880,1584
12.4900,1808
12.4920,1440
12.4940,2128
12.4960,2112
12.4980,1408
12.5000,2000
12.5020,1792
12.5040,1328
12.5060,1552
12.5080,1360
12.5100,1488
12.5120,1312
12.5140,1216
12.5160,1424
12.5180,1952
12.5200,1344
12.5220,1376
12.5240,7393
12.5260,1568
12.5280,1344
12.5300,1152
12.5320,1424
12.5340,1456
12.5360,1552
12.5380,1200
12.5400,1504
12.5420,3024
12.5440,1728
12.5460,1600
12.5480,2176
12.5500,3216
12.5520,1312
12.5540,2256
12.5560,1680
12.5580,1456
12.5600,1152
12.5620,1568
12.5640,1744
12.5660,1264
12.5680,1104
12.5700,1280
12.5720,2192
12.5740,1664
12.5760,5505
12.5780,4064
12.5800,1584
12.5820,1136
12.5840,1520
12.5860,1984
12.5880,1104
12.5900,1104
12.5920,1488
12.5940,1840
12.5960,1344
12.5980,1040
12.6000,1872
12.6020,1376
12.6040,1792
12.6060,1248
12.6080,1264
12.6100,2176
12.6120,1696
12.6140,1840
12.6160,1360
12.6180,1600
12.6200,1232
12.6220,1408
12.6240,1440
12.6260,1616
12.6280,1360
12.6300,1408
12.6320,1312
12.6340,1760
12.6360,1360
12.6380,1072
12.6400,1440
12.6420,1328
12.6440,1072
12.6460,2208
12.6480,1984
12.6500,1824
12.6520,1568
12.6540,1760
12.6560,1840
12.6580,13075
12.6600,6193
12.6620,4305
12.6640,1728
12.6660,3088
12.6680,5217
12.6700,2112
12.6720,2064
12.6740,1472
12.6760,2784
12.6780,1648
12.6800,1584
12.6820,1280
12.6840,1264
12.6860,1232
12.6880,1552
12.6900,1600
12.6920,1664
12.6940,2624
12.6960,1600
12.6980,1568
12.7000,1872
12.7020,1456
12.7040,1424
12.7060,1312
12.7080,1680
12.7100,1760
12.7120,1632
12.7140,1424
12.7160,1504
12.7180,1104
12.7200,1216
12.7220,1456
12.7240,1472
12.7260,1472
12.7280,2848
12.7300,1040
12.7320,2224
12.7340,1792
12.7360,2304
12.7380,1536
12.7400,1280
12.7420,1440
12.7440,7697
12.7460,3088
12.7480,1328
12.7500,2288
12.7520,1504
12.7540,2128
12.7560,1920
12.7580,976
12.7600,1120
12.7620,1824
12.7640,1616
12.7660,1936
12.7680,960
12.7700,1712
12.7720,2448
12.7740,1472
12.7760,1664
12.7780,1232
12.7800,1376
12.7820,1552
12.7840,1296
12.7860,1040
12.7880,1920
12.7900,3312
12.7920,2752
12.7940,1936
12.7960,1696
12.7980,2816
12.8000,1088
12.8020,2608
12.8040,1776
12.8060,4129
12.8080,1200
12.8100,2128
12.8120,1456
12.8140,1328
12.8160,1616
12.8180,1952
12.8200,1744
12.8220,1632
12.8240,1424
12.8260,1600
12.8280,1328
12.8300,1616
12.8320,1312
12.8340,1680
12.8360,2528
12.8380,1552
12.8400,1376
12.8420,1632
12.8440,1120
12.8460,1248
12.8480,1776
12.8500,1840
12.8520,2512
12.8540,3808
12.8560,2272
12.8580,1360
12.8600,1440
12.8620,1920
12.8640,4113
12.8660,1744
12.8680,2256
12.8700,1984
12.8720,1760
12.8740,1968
12.8760,1184
12.8780,1776
12.8800,1424
12.8820,1440
12.8840,1472
12.8860,1344
12.8880,912
12.8900,1408
12.8920,2448
12.8940,1120
12.8960,1712
12.8980,1200
12.9000,1856
12.9020,1216
12.9040,1120
12.9060,1360
12.9080,1200
12.9100,1936
12.9120,1408
12.9140,1568
12.9160,1744
12.9180,1088
12.9200,1504
12.9220,2672
12.9240,1968
12.9260,1296
12.9280,2096
12.9300,1664
12.9320,1584
12.9340,1440
12.9360,1168
12.9380,1200
12.9400,1232
12.9420,1088
12.9440,1280
12.9460,1152
12.9480,1920
12.9500,1312
12.9520,1104
12.9540,2208
12.9560,1120
12.9580,2432
12.9600,1200
12.9620,1088
12.9640,992
12.9660,1136
12.9680,1280
12.9700,2336
12.9720,1056
12.9740,1664
12.9760,1424
12.9780,1696
12.9800,2000
12.9820,3520
12.9840,1296
12.9860,3408
12.9880,2992
12.9900,1696
12.9920,1728
12.9940,1408
12.9960,2368
12.9980,1216
13.0000,1696
13.0020,1376
13.0040,1584
13.0060,1568
13.0080,1024
13.0100,1408
13.0120,1584
13.0140,1200
13.0160,1536
13.0180,2768
13.0200,1472
13.0220,1536
13.0240,1344
13.0260,1680
13.0280,1296
13.0300,1536
13.0320,1552
13.0340,1792
13.0360,2192
13.0380,1024
13.0400,1040
13.0420,1632
13.0440,2560
13.0460,2064
13.0480,1536
13.0500,1872
13.0520,1168
13.0540,1312
13.0560,2592
13.0580,1552
13.0600,2944
13.0620,1424
13.0640,1296
13.0660,1488
13.0680,8113
13.0700,4080
13.0720,2192
13.0740,1648
13.0760,1424
13.0780,1856
13.0800,2208
13.0820,1376
13.0840,1120
13.0860,1200
13.0880,992
13.0900,1744
13.0920,1312
13.0940,1472
13.0960,1328
13.0980,4609
13.1000,2960
13.1020,1680
13.1040,2736
13.1060,1216
13.1080,1344
13.1100,1584
13.1120,832
13.1140,2272
13.1160,1040
13.1180,1760
13.1200,1360
13.1220,1120
13.1240,2048
13.1260,1328
13.1280,1248
13.1300,2048
13.1320,1808
13.1340,2320
13.1360,1184
13.1380,1552
13.1400,1728
13.1420,1824
13.1440,1040
13.1460,1376
13.1480,1248
13.1500,1616
13.1520,1200
13.1540,1344
13.1560,1440
13.1580,1360
13.1600,2576
13.1620,3760
13.1640,1584
13.1660,1488
13.1680,1840
13.1700,1408
13.1720,1568
13.1740,2080
13.1760,5649
13.1780,2896
13.1800,1424
13.1820,1632
13.1840,1376
13.1860,3136
13.1880,1360
13.1900,1024
13.1920,1184
13.1940,1344
13.1960,992
13.1980,1360
13.2000,1744
13.2020,1488
13.2040,1632
13.2060,3024
13.2080,2480
13.2100,5217
13.2120,4497
13.2140,2000
13.2160,1968
13.2180,1568
13.2200,1856
13.2220,1568
13.2240,1152
13.2260,1184
13.2280,1168
13.2300,1360
13.2320,1216
13.2340,1952
13.2360,1376
13.2380,1312
13.2400,1184
13.2420,960
13.2440,1536
13.2460,1264
13.2480,2432
13.2500,2384
13.2520,2560
13.2540,1488
13.2560,1280
13.2580,1440
13.2600,1984
13.2620,1120
13.2640,1648
13.2660,1456
13.2680,1104
13.2700,1968
13.2720,2512
13.2740,1824
13.2760,1120
13.2780,1664
13.2800,2880
13.2820,4785
13.2840,2288
13.2860,1424
13.2880,1344
13.2900,2128
13.2920,1328
13.2940,1600
13.2960,1360
13.2980,1536
13.3000,1504
13.3020,1664
13.3040,1568
13.3060,1520
13.3080,1760
13.3100,1536
13.3120,1008
13.3140,1600
13.3160,1696
13.3180,1024
13.3200,1584
13.3220,2560
13.3240,1728
13.3260,1280
13.3280,2128
13.3300,1120
13.3320,1376
13.3340,1856
13.3360,1248
13.3380,2016
13.3400,1104
13.3420,592
13.3440,1360
13.3460,1872
13.3480,2048
13.3500,1744
13.3520,1728
13.3540,1584
13.3560,1984
13.3580,2112
13.3600,1360
13.3620,1840
13.3640,1472
13.3660,1760
13.3680,1552
13.3700,1488
13.3720,1184
13.3740,1472
13.3760,1408
13.3780,2064
13.3800,1296
13.3820,1920
13.3840,3472
13.3860,1472
13.3880,4145
13.3900,1504
13.3920,1424
13.3940,1872
13.3960,2192
13.3980,4113
13.4000,5601
13.4020,1968
13.4040,1600
13.4060,1376
13.4080,992
13.4100,1728
13.4120,1616
13.4140,1808
13.4160,1504
13.4180,1536
13.4200,1680
13.4220,1744
13.4240,2352
13.4260,1424
13.4280,1248
13.4300,1792
13.4320,1568
13.4340,1488
13.4360,1968
13.4380,1472
13.4400,1520
13.4420,2464
13.4440,1360
13.4460,1568
13.4480,1680
13.4500,1568
13.4520,1088
13.4540,2048
13.4560,1152
13.4580,1472
13.4600,1184
13.4620,1632
13.4640,1568
13.4660,1760
13.4680,1840
13.4700,1120
13.4720,1168
13.4740,1376
13.4760,1296
13.4780,1600
13.4800,1568
13.4820,1168
13.4840,1712
13.4860,1888
13.4880,1408
13.4900,1312
13.4920,1568
13.4940,1696
13.4960,2240
13.4980,1744
13.5000,1136
13.5020,1888
13.5040,1280
13.5060,4609
13.5080,1664
13.5100,1024
13.5120,1280
13.5140,1296
13.5160,1680
13.5180,1760
13.5200,1280
13.5220,1232
13.5240,1456
13.5260,1456
13.5280,2704
13.5300,1808
13.5320,2224
13.5340,1664
13.5360,1376
13.5380,1296
13.5400,1520
13.5420,1840
13.5440,1232
13.5460,1584
13.5480,1312
13.5500,1504
13.5520,1600
13.5540,2304
13.5560,2096
13.5580,1808
13.5600,1248
13.5620,1328
13.5640,1120
13.5660,1424
13.5680,1472
13.5700,1536
13.5720,1072
13.5740,1248
13.5760,2256
13.5780,1248
13.5800,1408
13.5820,1408
13.5840,3040
13.5860,1712
13.5880,1024
13.5900,1552
13.5920,1824
13.5940,2176
13.5960,1456
13.5980,2256
13.6000,1600
13.6020,1408
13.6040,2000
13.6060,1184
13.6080,1984
13.6100,4064
13.6120,3008
13.6140,1568
13.6160,2768
13.6180,1552
13.6200,1328
13.6220,1088
13.6240,1680
13.6260,1280
13.6280,1136
13.6300,3520
13.6320,1680
13.6340,1312
13.6360,1568
13.6380,1456
13.6400,1616
13.6420,1728
13.6440,1216
13.6460,1088
13.6480,1232
13.6500,2416
13.6520,2080
13.6540,2128
13.6560,1776
13.6580,1472
13.6600,1024
13.6620,2272
13.6640,1632
13.6660,1664
13.6680,1488
13.6700,1568
13.6720,1072
13.6740,1904
13.6760,1312
13.6780,1344
13.6800,3216
13.6820,3040
13.6840,1792
13.6860,2304
13.6880,1504
13.6900,2240
13.6920,1632
13.6940,1488
13.6960,1200
13.6980,1280
13.7000,1600
13.7020,2272
13.7040,2848
13.7060,1376
13.7080,1840
13.7100,4705
13.7120,1728
13.7140,1792
13.7160,1472
13.7180,1600
13.7200,2224
13.7220,5185
13.7240,2816
13.7260,2240
13.7280,1376
13.7300,1440
13.7320,1472
13.7340,1344
13.7360,2064
13.7380,960
13.7400,1536
13.7420,1472
13.7440,976
13.7460,3008
13.7480,3168
13.7500,1728
13.7520,1376
13.7540,1360
13.7560,1184
13.7580,1472
13.7600,2960
13.7620,2016
13.7640,1680
13.7660,1616
13.7680,1600
13.7700,1248
13.7720,1712
13.7740,1184
13.7760,1344
13.7780,1568
13.7800,3200
13.7820,2464
13.7840,2176
13.7860,2320
13.7880,1264
13.7900,1856
13.7920,4305
13.7940,2512
13.7960,2208
13.7980,1536
13.8000,1216
13.8020,1568
13.8040,2368
13.8060,1408
13.8080,1232
13.8100,1200
13.8120,1056
13.8140,2112
13.8160,1536
13.8180,1792
13.8200,1296
13.8220,3680
13.8240,3040
13.8260,1952
13.8280,1552
13.8300,1616
13.8320,1120
13.8340,1280
13.8360,1280
13.8380,1248
13.8400,1440
13.8420,1168
13.8440,1872
13.8460,1200
13.8480,1616
13.8500,1632
13.8520,1376
13.8540,2048
13.8560,1696
13.8580,1216
13.8600,1280
13.8620,2368
13.8640,1104
13.8660,1328
13.8680,1472
13.8700,1488
13.8720,1168
13.8740,1248
13.8760,1216
13.8780,1072
13.8800,1280
13.8820,1104
13.8840,1488
13.8860,2000
13.8880,1952
13.8900,1680
13.8920,1344
13.8940,1296
13.8960,2976
13.8980,1680
13.9000,1968
13.9020,1696
13.9040,1424
13.9060,1984
13.9080,1696
13.9100,1696
13.9120,1120
13.9140,1904
13.9160,1360
13.9180,4048
13.9200,1216
13.9220,1296
13.9240,1104
13.9260,1728
13.9280,6881
13.9300,3104
13.9320,1200
13.9340,1632
13.9360,1744
13.9380,1680
13.9400,1600
13.9420,1488
13.9440,1584
13.9460,1584
13.9480,1760
13.9500,1472
13.9520,1472
13.9540,1200
13.9560,1120
13.9580,1312
13.9600,2368
13.9620,1504
13.9640,2816
13.9660,1120
13.9680,1792
13.9700,2112
13.9720,1408
13.9740,1600
13.9760,2496
13.9780,1776
13.9800,1104
13.9820,2064
13.9840,1184
13.9860,2752
13.9880,4000
13.9900,2112
13.9920,3104
13.9940,1472
13.9960,1456
13.9980,1536
14.0000,1680
14.0020,1200
14.0040,1056
14.0060,1248
14.0080,1408
14.0100,1776
14.0120,1728
14.0140,1296
14.0160,1344
14.0180,1696
14.0200,1376
14.0220,1200
14.0240,3936
14.0260,1408
14.0280,11218
14.0300,12002
14.0320,1952
14.0340,1360
14.0360,1360
14.0380,1376
14.0400,1424
14.0420,1696
14.0440,2064
14.0460,1584
14.0480,1296
14.0500,1040
14.0520,2544
14.0540,2800
14.0560,1728
14.0580,1104
14.0600,1568
14.0620,2016
14.0640,1184
14.0660,1008
14.0680,1520
14.0700,976
14.0720,1120
14.0740,1440
14.0760,3232
14.0780,2192
14.0800,1648
14.0820,1360
14.0840,1792
14.0860,1536
14.0880,2752
14.0900,1712
14.0920,1696
14.0940,1584
14.0960,1248
14.0980,1296
14.1000,1248
14.1020,1376
14.1040,1856
14.1060,3808
14.1080,2064
14.1100,1168
14.1120,1376
14.1140,1296
14.1160,1424
14.1180,1952
14.1200,1488
14.1220,1680
14.1240,1792
14.1260,1216
14.1280,1328
14.1300,3536
14.1320,2256
14.1340,2528
14.1360,5601
14.1380,2640
14.1400,1760
14.1420,2848
14.1440,1424
14.1460,1184
14.1480,1408
14.1500,1696
14.1520,1568
14.1540,1712
14.1560,5473
14.1580,3424
14.1600,4577
14.1620,3248
14.1640,1376
14.1660,1424
14.1680,1552
14.1700,1120
14.1720,1296
14.1740,1344
14.1760,1056
14.1780,1584
14.1800,1952
14.1820,1216
14.1840,1280
14.1860,1824
14.1880,784
14.1900,1360
14.1920,2560
14.1940,1648
14.1960,1520
14.1980,1888
14.2000,1376
14.2020,1728
14.2040,1552
14.2060,1408
14.2080,1984
14.2100,1632
14.2120,1376
14.2140,912
14.2160,1040
14.2180,1536
14.2200,1920
14.2220,1552
14.2240,1504
14.2260,1280
14.2280,944
14.2300,1296
14.2320,1024
14.2340,2528
14.2360,1168
14.2380,2016
14.2400,5329
14.2420,2464
14.2440,1552
14.2460,1440
14.2480,1024
14.2500,1024
14.2520,1712
14.2540,1568
14.2560,1456
14.2580,1280
14.2600,1040
14.2620,1888
14.2640,1312
14.2660,1504
14.2680,1664
14.2700,1360
14.2720,1696
14.2740,2240
14.2760,4625
14.2780,3408
14.2800,1072
14.2820,2192
14.2840,1088
14.2860,1984
14.2880,1872
14.2900,800
14.2920,3328
14.2940,1488
14.2960,1360
14.2980,1568
14.3000,2704
14.3020,1328
14.3040,976
14.3060,2368
14.3080,2064
14.3100,1248
14.3120,1360
14.3140,1104
14.3160,1344
14.3180,1008
14.3200,1312
14.3220,1728
14.3240,1168
14.3260,1296
14.3280,1696
14.3300,976
14.3320,1584
14.3340,1504
14.3360,1552
14.3380,2064
14.3400,1168
14.3420,928
14.3440,1088
14.3460,1792
14.3480,1168
14.3500,1840
14.3520,1296
14.3540,2304
14.3560,1216
14.3580,1600
14.3600,928
14.3620,816
14.3640,1440
14.3660,1936
14.3680,6241
14.3700,1680
14.3720,1312
14.3740,1232
14.3760,1168
14.3780,1184
14.3800,1536
14.3820,1472
14.3840,1472
14.3860,1232
14.3880,1344
14.3900,2128
14.3920,4449
14.3940,1216
14.3960,992
14.3980,1360
14.4000,1680
14.4020,2448
14.4040,2528
14.4060,1056
14.4080,1552
14.4100,1424
14.4120,1248
14.4140,2880
14.4160,2896
14.4180,1328
14.4200,1408
14.4220,1408
14.4240,1024
14.4260,1456
14.4280,1248
14.4300,2448
14.4320,1312
14.4340,1024
14.4360,1488
14.4380,1744
14.4400,1728
14.4420,1280
14.4440,1360
14.4460,1504
14.4480,2432
14.4500,1104
14.4520,1472
14.4540,1568
14.4560,1456
14.4580,1376
14.4600,1664
14.4620,1024
14.4640,2512
14.4660,1536
14.4680,1200
14.4700,1024
14.4720,1552
14.4740,1696
14.4760,1520
14.4780,3312
14.4800,4689
14.4820,1488
14.4840,1504
14.4860,1936
14.4880,2400
14.4900,1504
14.4920,1616
14.4940,1472
14.4960,1792
14.4980,1488
14.5000,1216
14.5020,1120
14.5040,1664
14.5060,1872
14.5080,1456
14.5100,1568
14.5120,1408
14.5140,1600
14.5160,1296
14.5180,1072
14.5200,1216
14.5220,1472
14.5240,1200
14.5260,1360
14.5280,2784
14.5300,1200
14.5320,1280
14.5340,1888
14.5360,1600
14.5380,3904
14.5400,1808
14.5420,1584
14.5440,1376
14.5460,1680
14.5480,1632
14.5500,1536
14.5520,1808
14.5540,1344
14.5560,1280
14.5580,2528
14.5600,1248
14.5620,1328
14.5640,3424
14.5660,1808
14.5680,1280
14.5700,2624
14.5720,1584
14.5740,848
14.5760,1504
14.5780,1216
14.5800,1536
14.5820,1616
14.5840,1056
14.5860,1968
14.5880,1360
14.5900,1504
14.5920,1488
14.5940,1360
14.5960,800
14.5980,1984
14.6000,1568
14.6020,1072
14.6040,1488
14.6060,3600
14.6080,896
14.6100,1552
14.6120,1712
14.6140,1296
14.6160,3536
14.6180,3488
14.6200,2128
14.6220,3760
14.6240,1504
14.6260,2912
14.6280,1472
14.6300,1312
14.6320,928
14.6340,1552
14.6360,1216
14.6380,1056
14.6400,1680
14.6420,1232
14.6440,1152
14.6460,1120
14.6480,1600
14.6500,1376
14.6520,2768
14.6540,1280
14.6560,1312
14.6580,1856
14.6600,1840
14.6620,1344
14.6640,992
14.6660,7633
14.6680,2608
14.6700,2320
14.6720,1360
14.6740,1328
14.6760,1360
14.6780,736
14.6800,1504
14.6820,1792
14.6840,1568
14.6860,1440
14.6880,1504
14.6900,1088
14.6920,1200
14.6940,1968
14.6960,848
14.6980,1216
14.7000,1280
14.7020,1664
14.7040,1584
14.7060,1360
14.7080,1104
14.7100,1664
14.7120,1280
14.7140,1584
14.7160,1744
14.7180,3200
14.7200,4145
14.7220,2960
14.7240,1472
14.7260,2912
14.7280,2208
14.7300,2016
14.7320,4161
14.7340,6593
14.7360,1632
14.7380,1232
14.7400,1280
14.7420,1008
14.7440,2576
14.7460,1312
14.7480,1296
14.7500,1952
14.7520,1328
14.7540,1104
14.7560,1200
14.7580,1376
14.7600,1248
14.7620,1296
14.7640,1792
14.7660,1600
14.7680,1600
14.7700,1696
14.7720,1664
14.7740,2144
14.7760,1696
14.7780,1616
14.7800,3104
14.7820,1856
14.7840,1120
14.7860,1376
14.7880,1808
14.7900,992
14.7920,1184
14.7940,1504
14.7960,2192
14.7980,1200
14.8000,1616
14.8020,1440
14.8040,1616
14.8060,1296
14.8080,1104
14.8100,4993
14.8120,3152
14.8140,1952
14.8160,1600
14.8180,2240
14.8200,3056
14.8220,1600
14.8240,1344
14.8260,2592
14.8280,2512
14.8300,912
14.8320,2768
14.8340,7489
14.8360,5377
14.8380,816
14.8400,1584
14.8420,736
14.8440,1280
14.8460,1376
14.8480,1424
14.8500,1040
14.8520,1536
14.8540,2080
14.8560,960
14.8580,1120
14.8600,1440
14.8620,1312
14.8640,1872
14.8660,1216
14.8680,1408
14.8700,1296
14.8720,1632
14.8740,1856
14.8760,1312
14.8780,1696
14.8800,1360
14.8820,1280
14.8840,1296
14.8860,848
14.8880,1568
14.8900,1680
14.8920,1232
14.8940,1504
14.8960,1040
14.8980,1376
14.9000,1712
14.9020,1408
14.9040,1584
14.9060,1664
14.9080,1792
14.9100,2016
14.9120,2480
14.9140,1296
14.9160,1760
14.9180,1712
14.9200,1200
14.9220,1728
14.9240,960
14.9260,1376
14.9280,1568
14.9300,1760
14.9320,1568
14.9340,1536
14.9360,1520
14.9380,4689
14.9400,4161
14.9420,1648
14.9440,1728
14.9460,1264
14.9480,1728
14.9500,1424
14.9520,1536
14.9540,1488
14.9560,1872
14.9580,3664
14.9600,1552
14.9620,1296
14.9640,1344
14.9660,1440
14.9680,1472
14.9700,2000
14.9720,1232
14.9740,1552
14.9760,1488
14.9780,1536
14.9800,1520
14.9820,1504
14.9840,1600
14.9860,1600
14.9880,1280
14.9900,1504
14.9920,1168
14.9940,1632
14.9960,1504
14.9980,1104
15.0000,1936
15.0020,1456
15.0040,1088
15.0060,1104
15.0080,1328
15.0100,2784
15.0120,1872
15.0140,1984
15.0160,1536
15.0180,1408
15.0200,1920
15.0220,2080
15.0240,1280
15.0260,1328
15.0280,1888
15.0300,1472
15.0320,1680
15.0340,1456
15.0360,1264
15.0380,1760
15.0400,1312
15.0420,1680
15.0440,1088
15.0460,1760
15.0480,1168
15.0500,1632
15.0520,1872
15.0540,1664
15.0560,1280
15.0580,1472
15.0600,6369
15.0620,2960
15.0640,2112
15.0660,1296
15.0680,1632
15.0700,2096
15.0720,3344
15.0740,1360
15.0760,928
15.0780,2128
15.0800,1328
15.0820,1760
15.0840,2240
15.0860,1776
15.0880,6145
15.0900,2608
15.0920,1280
15.0940,1536
15.0960,2096
15.0980,1328
15.1000,960
15.1020,1472
15.1040,1744
15.1060,1264
15.1080,1328
15.1100,1424
15.1120,1872
15.1140,1088
15.1160,1696
15.1180,1312
15.1200,1856
15.1220,1056
15.1240,896
15.1260,1952
15.1280,1296
15.1300,2848
15.1320,1888
15.1340,2272
15.1360,1472
15.1380,1344
15.1400,1280
15.1420,1680
15.1440,1840
15.1460,1408
15.1480,1216
15.1500,1088
15.1520,1040
15.1540,1488
15.1560,1776
15.1580,800
15.1600,2704
15.1620,1360
15.1640,2688
15.1660,1360
15.1680,1200
15.1700,1200
15.1720,1504
15.1740,8802
15.1760,2960
15.1780,1280
15.1800,2096
15.1820,2256
15.1840,1616
15.1860,2816
15.1880,3008
15.1900,1520
15.1920,5329
15.1940,4193
15.1960,1248
15.1980,1344
15.2000,2144
15.2020,1376
15.2040,1232
15.2060,1536
15.2080,976
15.2100,1456
15.2120,1456
15.2140,1856
15.2160,1968
15.2180,2048
15.2200,1424
15.2220,1184
15.2240,912
15.2260,1488
15.2280,1936
15.2300,2112
15.2320,1840
15.2340,1328
15.2360,1856
15.2380,2912
15.2400,2576
15.2420,1664
15.2440,1728
15.2460,2224
15.2480,2400
15.2500,1744
15.2520,1424
15.2540,1680
15.2560,1712
15.2580,1248
15.2600,2016
15.2620,1312
15.2640,1456
15.2660,1840
15.2680,1152
15.2700,2016
15.2720,6177
15.2740,1568
15.2760,1728
15.2780,1248
15.2800,1072
15.2820,2848
15.2840,1600
15.2860,1216
15.2880,1328
15.2900,1360
15.2920,1216
15.2940,2208
15.2960,4865
15.2980,1504
15.3000,1456
15.3020,1616
15.3040,1072
15.3060,1056
15.3080,2176
15.3100,2240
15.3120,2352
15.3140,2096
15.3160,1568
15.3180,1680
15.3200,1760
15.3220,1808
15.3240,1344
15.3260,928
15.3280,1456
15.3300,1232
15.3320,1568
15.3340,2384
15.3360,1616
15.3380,1840
15.3400,1280
15.3420,1104
15.3440,1840
15.3460,1984
15.3480,928
15.3500,1344
15.3520,1248
15.3540,1216
15.3560,2848
15.3580,1328
15.3600,1152
15.3620,1136
15.3640,1168
15.3660,2816
15.3680,4817
15.3700,3328
15.3720,1408
15.3740,1152
15.3760,1088
15.3780,1728
15.3800,1744
15.3820,992
15.3840,1200
15.3860,1584
15.3880,1376
15.3900,2112
15.3920,1312
15.3940,1072
15.3960,1312
15.3980,3264
15.4000,1712
15.4020,1280
15.4040,1760
15.4060,1232
15.4080,1696
15.4100,1184
15.4120,1744
15.4140,1376
15.4160,2576
15.4180,1088
15.4200,1456
15.4220,1024
15.4240,2944
15.4260,2608
15.4280,3840
15.4300,5473
15.4320,2128
15.4340,1040
15.4360,1504
15.4380,1408
15.4400,2512
15.4420,1200
15.4440,992
15.4460,1232
15.4480,1968
15.4500,1600
15.4520,1216
15.4540,1120
15.4560,1408
15.4580,1232
15.4600,1616
15.4620,1104
15.4640,1456
15.4660,1872
15.4680,3312
15.4700,2320
15.4720,1280
15.4740,1024
15.4760,1504
15.4780,1504
15.4800,1488
15.4820,1312
15.4840,1840
15.4860,1568
15.4880,1376
15.4900,1376
15.4920,2144
15.4940,1680
15.4960,1152
15.4980,2384
15.5000,2560
15.5020,1760
15.5040,1520
15.5060,1360
15.5080,1216
15.5100,1568
15.5120,1808
15.5140,1600
15.5160,1744
15.5180,3536
15.5200,1744
15.5220,1296
15.5240,1552
15.5260,1552
15.5280,2304
15.5300,1840
15.5320,1776
15.5340,1952
15.5360,1344
15.5380,1424
15.5400,1200
15.5420,1232
15.5440,1440
15.5460,1568
15.5480,1664
15.5500,1680
15.5520,1808
15.5540,1360
15.5560,1344
15.5580,1088
15.5600,1296
15.5620,1296
15.5640,1728
15.5660,1680
15.5680,1568
15.5700,1568
15.5720,1248
15.5740,1184
15.5760,1568
15.5780,1376
15.5800,1552
15.5820,1568
15.5840,1968
15.5860,1184
15.5880,1408
15.5900,1456
15.5920,976
15.5940,1424
15.5960,1520
15.5980,1600
15.6000,1872
15.6020,1440
15.6040,1760
15.6060,1344
15.6080,1296
15.6100,1600
15.6120,1568
15.6140,1360
15.6160,1728
15.6180,1584
15.6200,1680
15.6220,1104
15.6240,1360
15.6260,1328
15.6280,1120
15.6300,1744
15.6320,1344
15.6340,1664
15.6360,2576
15.6380,1952
15.6400,1440
15.6420,1536
15.6440,2208
15.6460,1648
15.6480,1424
15.6500,1936
15.6520,1824
15.6540,1520
15.6560,1328
15.6580,992
15.6600,1616
15.6620,992
15.6640,1440
15.6660,1552
15.6680,1216
15.6700,1264
15.6720,1584
15.6740,1776
15.6760,3744
15.6780,4529
15.6800,1536
15.6820,1472
15.6840,1968
15.6860,1424
15.6880,1568
15.6900,1680
15.6920,1280
15.6940,1312
15.6960,1376
15.6980,1312
15.7000,1280
15.7020,1760
15.7040,1456
15.7060,3584
15.7080,1584
15.7100,1632
15.7120,1376
15.7140,1088
15.7160,1216
15.7180,1456
15.7200,1280
15.7220,1952
15.7240,1168
15.7260,1344
15.7280,1472
15.7300,1424
15.7320,2400
15.7340,2464
15.7360,2432
15.7380,2288
15.7400,1168
15.7420,1632
15.7440,1600
15.7460,2192
15.7480,2624
15.7500,1248
15.7520,1664
15.7540,1840
15.7560,1968
15.7580,1328
15.7600,1664
15.7620,1552
15.7640,1664
15.7660,1200
15.7680,1152
15.7700,1648
15.7720,2096
15.7740,1280
15.7760,1728
15.7780,1840
15.7800,1872
15.7820,1152
15.7840,1440
15.7860,1664
15.7880,784
15.7900,1104
15.7920,1696
15.7940,1440
15.7960,960
15.7980,1184
15.8000,1344
15.8020,1936
15.8040,1632
15.8060,1808
15.8080,1840
15.8100,1760
15.8120,1584
15.8140,1968
15.8160,1584
15.8180,1600
15.8200,1424
15.8220,1664
15.8240,1296
15.8260,1552
15.8280,1168
15.8300,1312
15.8320,1568
15.8340,2384
15.8360,5265
15.8380,1648
15.8400,6065
15.8420,3648
15.8440,1840
15.8460,2336
15.8480,2384
15.8500,1120
15.8520,1376
15.8540,1936
15.8560,1376
15.8580,1056
15.8600,1824
15.8620,2352
15.8640,1360
15.8660,2000
15.8680,1920
15.8700,2096
15.8720,6065
15.8740,9298
15.8760,1808
15.8780,6865
15.8800,3392
15.8820,2368
15.8840,3296
15.8860,2048
15.8880,1424
15.8900,1856
15.8920,2256
15.8940,2496
15.8960,1120
15.8980,1024
15.9000,1888
15.9020,4849
15.9040,5953
15.9060,1664
15.9080,1680
15.9100,1568
15.9120,4048
15.9140,1968
15.9160,3712
15.9180,1920
15.9200,1696
15.9220,1312
15.9240,4000
15.9260,1184
15.9280,2064
15.9300,1760
15.9320,1952
15.9340,1600
15.9360,1040
15.9380,1712
15.9400,928
15.9420,2256
15.9440,2016
15.9460,1664
15.9480,1984
15.9500,1632
15.9520,2160
15.9540,1200
15.9560,1536
15.9580,1536
15.9600,1824
15.9620,1072
15.9640,1712
15.9660,2224
15.9680,2880
15.9700,1456
15.9720,2208
15.9740,4064
15.9760,2608
15.9780,1760
15.9800,2448
15.9820,1488
15.9840,1920
15.9860,1216
15.9880,1920
15.9900,1104
15.9920,2272
15.9940,1632
15.9960,1680
15.9980,1472
16.0000,1328
16.0020,8642
16.0040,3312
16.0060,3216
16.0080,4064
16.0100,2160
16.0120,2048
16.0140,1776
16.0160,1328
16.0180,1776
16.0200,1440
16.0220,2672
16.0240,1600
16.0260,1568
16.0280,1952
16.0300,1744
16.0320,1904
16.0340,1616
16.0360,2000
16.0380,2016
16.0400,1200
16.0420,1376
16.0440,2304
16.0460,2384
16.0480,1744
16.0500,2432
16.0520,1360
16.0540,1376
16.0560,1728
16.0580,2544
16.0600,1840
16.0620,2016
16.0640,2336
16.0660,1584
16.0680,1680
16.0700,1536
16.0720,1632
16.0740,3008
16.0760,2048
16.0780,1872
16.0800,2016
16.0820,1808
16.0840,2448
16.0860,4929
16.0880,2304
16.0900,1856
16.0920,1152
16.0940,5249
16.0960,2304
16.0980,6561
16.1000,1568
16.1020,1424
16.1040,1216
16.1060,2208
16.1080,5809
16.1100,2272
16.1120,1856
16.1140,3200
16.1160,1680
16.1180,1504
16.1200,2784
16.1220,1968
16.1240,2016
16.1260,2352
16.1280,1808
16.1300,1984
16.1320,2704
16.1340,1808
16.1360,1728
16.1380,2912
16.1400,1712
16.1420,2192
16.1440,2448
16.1460,1760
16.1480,1120
16.1500,1920
16.1520,2256
16.1540,1456
16.1560,2048
16.1580,4177
16.1600,1872
16.1620,1504
16.1640,8994
16.1660,2048
16.1680,2528
16.1700,9554
16.1720,2352
16.1740,2640
16.1760,1696
16.1780,3520
16.1800,2304
16.1820,1632
16.1840,2128
16.1860,8498
16.1880,3024
16.1900,3392
16.1920,1408
16.1940,2816
16.1960,1264
16.1980,5393
16.2000,8530
16.2020,13283
16.2040,1376
16.2060,1680
16.2080,2304
16.2100,1696
16.2120,1088
16.2140,2512
16.2160,2080
16.2180,1648
16.2200,1632
16.2220,1568
16.2240,2880
16.2260,2272
16.2280,2080
16.2300,1888
16.2320,1104
16.2340,2192
16.2360,2864
16.2380,2976
16.2400,1840
16.2420,1808
16.2440,2192
16.2460,1984
16.2480,2752
16.2500,3456
16.2520,4097
16.2540,4561
16.2560,2112
16.2580,2896
16.2600,2240
16.2620,3856
16.2640,1552
16.2660,1584
16.2680,3648
16.2700,2064
16.2720,3872
16.2740,13987
16.2760,1680
16.2780,1488
16.2800,2064
16.2820,14403
16.2840,4609
16.2860,1296
16.2880,8081
16.2900,1504
16.2920,7425
16.2940,1664
16.2960,7249
16.2980,2560
16.3000,7649
16.3020,3600
16.3040,3136
16.3060,3760
16.3080,3536
16.3100,1808
16.3120,1584
16.3140,3264
16.3160,1616
16.3180,1216
16.3200,2896
16.3220,7745
16.3240,13379
16.3260,4401
16.3280,8706
16.3300,1776
16.3320,5185
16.3340,5249
16.3360,7713
16.3380,14867
16.3400,10194
16.3420,2512
16.3440,7633
16.3460,1536
16.3480,2496
16.3500,4353
16.3520,2688
16.3540,3088
16.3560,1856
16.3580,2704
16.3600,3392
16.3620,6369
16.3640,3200
16.3660,1856
16.3680,21605
16.3700,8546
16.3720,3600
16.3740,12707
16.3760,22037
16.3780,9138
16.3800,1744
16.3820,1552
16.3840,5041
16.3860,2048
16.3880,5681
16.3900,16195
16.3920,3168
16.3940,3200
16.3960,1952
16.3980,1344
16.4000,7809
16.4020,5889
16.4040,5137
16.4060,13219
16.4080,4385
16.4100,2464
16.4120,1488
16.4140,1312
16.4160,1440
16.4180,5169
16.4200,1968
16.4220,2384
16.4240,1904
16.4260,2304
16.4280,1632
16.4300,13315
16.4320,3232
16.4340,4016
16.4360,9890
16.4380,5825
16.4400,15331
16.4420,15843
16.4440,8610
16.4460,2336
16.4480,3024
16.4500,1872
16.4520,1632
16.4540,10770
16.4560,12467
16.4580,2224
16.4600,5185
16.4620,1952
16.4640,1488
16.4660,6545
16.4680,2400
16.4700,10562
16.4720,21093
16.4740,12018
16.4760,1824
16.4780,1856
16.4800,2192
16.4820,2992
16.4840,23621
16.4860,7041
16.4880,2944
16.4900,13283
16.4920,8033
16.4940,10530
16.4960,17700
16.4980,10466
16.5000,7041
16.5020,2112
16.5040,1888
16.5060,5009
16.5080,10578
16.5100,10754
16.5120,1872
16.5140,17860
16.5160,8001
16.5180,5377
16.5200,6321
16.5220,12194
16.5240,1760
16.5260,2240
16.5280,3376
16.5300,15539
16.5320,2448
16.5340,11810
16.5360,2288
16.5380,6737
16.5400,3712
16.5420,16275
16.5440,12787
16.5460,2544
16.5480,7553
16.5500,1824
16.5520,2448
16.5540,19908
16.5560,1584
16.5580,3568
16.5600,9250
16.5620,7697
16.5640,1808
16.5660,2896
16.5680,3264
16.5700,3904
16.5720,18772
16.5740,16916
16.5760,20116
16.5780,22597
16.5800,2400
16.5820,7473
16.5840,1536
16.5860,21669
16.5880,5505
16.5900,1824
16.5920,10290
16.5940,12258
16.5960,7025
16.5980,8226
16.6000,7697
16.6020,8177
16.6040,5905
16.6060,25638
16.6080,3312
16.6100,5441
16.6120,12627
16.6140,5201
16.6160,7457
16.6180,1536
16.6200,4097
16.6220,3216
16.6240,9234
16.6260,13587
16.6280,2912
16.6300,8802
16.6320,2928
16.6340,3104
16.6360,13219
16.6380,1456
16.6400,2448
16.6420,5233
16.6440,18836
16.6460,2080
16.6480,2320
16.6500,4705
16.6520,1296
16.6540,1376
16.6560,1264
16.6580,2240
16.6600,2384
16.6620,6065
16.6640,3872
16.6660,2464
16.6680,28759
16.6700,14163
16.6720,3120
16.6740,12867
16.6760,2368
16.6780,4064
16.6800,2112
16.6820,12258
16.6840,8370
16.6860,31783
16.6880,3936
16.6900,19972
16.6920,10658
16.6940,19732
16.6960,2528
16.6980,2944
16.7000,8177
16.7020,12835
16.7040,18052
16.7060,17492
16.7080,15683
16.7100,13603
16.7120,16724
16.7140,8946
16.7160,2240
16.7180,3120
16.7200,3904
16.7220,15667
16.7240,20228
16.7260,8546
16.7280,20677
16.7300,2112
16.7320,22677
16.7340,36905
16.7360,4785
16.7380,11986
16.7400,8161
16.7420,10658
16.7440,8450
16.7460,3648
16.7480,6449
16.7500,19524
16.7520,6017
16.7540,3920
16.7560,8962
16.7580,22981
16.7600,6833
16.7620,9602
16.7640,1808
16.7660,5425
16.7680,13507
16.7700,18772
16.7720,4561
16.7740,4113
16.7760,14675
16.7780,4593
16.7800,7745
16.7820,13795
16.7840,31575
16.7860,1616
16.7880,20276
16.7900,12162
16.7920,8866
16.7940,4753
16.7960,15123
16.7980,3040
16.8000,1744
16.8020,20100
16.8040,8930
16.8060,7809
16.8080,22917
16.8100,4865
16.8120,16772
16.8140,24485
16.8160,3216
16.8180,6993
16.8200,29623
16.8220,2080
16.8240,19300
16.8260,4129
16.8280,6945
16.8300,12867
16.8320,19140
16.8340,3808
16.8360,6849
16.8380,9794
16.8400,2128
16.8420,13139
16.8440,8658
16.8460,1776
16.8480,4385
16.8500,18740
16.8520,4273
16.8540,8594
16.8560,1968
16.8580,12355
16.8600,1248
16.8620,1456
16.8640,12515
16.8660,8177
16.8680,17092
16.8700,19876
16.8720,2112
16.8740,5665
16.8760,13779
16.8780,2352
16.8800,6689
16.8820,2112
16.8840,10274
16.8860,9682
16.8880,9490
16.8900,7617
16.8920,4929
16.8940,6081
16.8960,3104
16.8980,6113
16.9000,5569
16.9020,8834
16.9040,6017
16.9060,18372
16.9080,1552
16.9100,1712
16.9120,5953
16.9140,2096
16.9160,1168
16.9180,16035
16.9200,8290
16.9220,8706
16.9240,10754
16.9260,9858
16.9280,2736
16.9300,3664
16.9320,2192
16.9340,4433
16.9360,7585
16.9380,1872
16.9400,3168
16.9420,5121
16.9440,15699
16.9460,23909
16.9480,1968
16.9500,34424
16.9520,3536
16.9540,8177
16.9560,7169
16.9580,26902
16.9600,15203
16.9620,1552
16.9640,3840
16.9660,8418
16.9680,4321
16.9700,18100
16.9720,8177
16.9740,28646
16.9760,2560
16.9780,17620
16.9800,4529
16.9820,20116
16.9840,12371
16.9860,2208
16.9880,13107
16.9900,11138
16.9920,1488
16.9940,2480
16.9960,3392
16.9980,12723
17.0000,2384
17.0020,9282
17.0040,2544
17.0060,6753
17.0080,2384
17.0100,1952
17.0120,6721
17.0140,6353
17.0160,2304
17.0180,4529
17.0200,12323
17.0220,10178
17.0240,22693
17.0260,8498
17.0280,14531
17.0300,17652
17.0320,5713
17.0340,15651
17.0360,16388
17.0380,1456
17.0400,5441
17.0420,2432
17.0440,3120
17.0460,8033
17.0480,5041
17.0500,2800
17.0520,15059
17.0540,2256
17.0560,19940
17.0580,11682
17.0600,13955
17.0620,14259
17.0640,51164
17.0660,9762
17.0680,17028
17.0700,7473
17.0720,2336
17.0740,5473
17.0760,20004
17.0780,4689
17.0800,2352
17.0820,5809
17.0840,19476
17.0860,13667
17.0880,8850
17.0900,3808
17.0920,5185
17.0940,3360
17.0960,1552
17.0980,8129
17.1000,3760
17.1020,4577
17.1040,10082
17.1060,2976
17.1080,7169
17.1100,3008
17.1120,15955
17.1140,4385
17.1160,2080
17.1180,10258
17.1200,12082
17.1220,8626
17.1240,3232
17.1260,4641
17.1280,3840
17.1300,3168
17.1320,3040
17.1340,12018
17.1360,3008
17.1380,2512
17.1400,2704
17.1420,2624
17.1440,6753
17.1460,5425
17.1480,6433
17.1500,7217
17.1520,10258
17.1540,5969
17.1560,14083
17.1580,12883
17.1600,8866
17.1620,2208
17.1640,16580
17.1660,11298
17.1680,1936
17.1700,1904
17.1720,2224
17.1740,23269
17.1760,7185
17.1780,24565
17.1800,11666
17.1820,5281
17.1840,26950
17.1860,8258
17.1880,5201
17.1900,3104
17.1920,11282
17.1940,2832
17.1960,4321
17.1980,1616
17.2000,12226
17.2020,6417
17.2040,31431
17.2060,14179
17.2080,12547
17.2100,12691
17.2120,13507
17.2140,2000
17.2160,9714
17.2180,1536
17.2200,13363
17.2220,5969
17.2240,9170
17.2260,29975
17.2280,4385
17.2300,3344
17.2320,3376
17.2340,19748
17.2360,1552
17.2380,3024
17.2400,15715
17.2420,7585
17.2440,10834
17.2460,33304
17.2480,2304
17.2500,13283
17.2520,2672
17.2540,1872
17.2560,4497
17.2580,2720
17.2600,9554
17.2620,6657
17.2640,2016
17.2660,4097
17.2680,2512
17.2700,7857
17.2720,6337
17.2740,1856
17.2760,2464
17.2780,1952
17.2800,2368
17.2820,2080
17.2840,12499
17.2860,3088
17.2880,1760
17.2900,4993
17.2920,5649
17.2940,5553
17.2960,3632
17.2980,11602
17.3000,10178
17.3020,6753
17.3040,1600
17.3060,3456
17.3080,1616
17.3100,2224
17.3120,8017
17.3140,8706
17.3160,2944
17.3180,8722
17.3200,10178
17.3220,7681
17.3240,7073
17.3260,2896
17.3280,1728
17.3300,3360
17.3320,2352
17.3340,6865
17.3360,8946
17.3380,3920
17.3400,13955
17.3420,2224
17.3440,10482
17.3460,5073
17.3480,6065
17.3500,2624
17.3520,3584
17.3540,12258
17.3560,3600
17.3580,1488
17.3600,2848
17.3620,16067
17.3640,2208
17.3660,19524
17.3680,16099
17.3700,14547
17.3720,2816
17.3740,6049
17.3760,13155
17.3780,15139
17.3800,6465
17.3820,3072
17.3840,9522
17.3860,2000
17.3880,3616
17.3900,3024
17.3920,6593
17.3940,1440
17.3960,9666
17.3980,26694
17.4000,8770
17.4020,13251
17.4040,3488
17.4060,1824
17.4080,19172
17.4100,5985
17.4120,2096
17.4140,15875
17.4160,6241
17.4180,7489
17.4200,12595
17.4220,12210
17.4240,15747
17.4260,13475
17.4280,28470
17.4300,3312
17.4320,12643
17.4340,23285
17.4360,1600
17.4380,5473
17.4400,3744
17.4420,1584
17.4440,14611
17.4460,16339
17.4480,4048
17.4500,23445
17.4520,2208
17.4540,3904
17.4560,2384
17.4580,19860
17.4600,2096
17.4620,6481
17.4640,18468
17.4660,25382
17.4680,1584
17.4700,1808
17.4720,18308
17.4740,18436
17.4760,12451
17.4780,16548
17.4800,7713
17.4820,2272
17.4840,9474
17.4860,16003
17.4880,10338
17.4900,12210
17.4920,1824
17.4940,11986
17.4960,4929
17.4980,15235
17.5000,2304
17.5020,4369
17.5040,2624
17.5060,12803
17.5080,4945
17.5100,20677
17.5120,5809
17.5140,13395
17.5160,7553
17.5180,16452
17.5200,2192
17.5220,4657
17.5240,4016
17.5260,6209
17.5280,20036
17.5300,3888
17.5320,3424
17.5340,17508
17.5360,15571
17.5380,3408
17.5400,3248
17.5420,3008
17.5440,1728
17.5460,7377
17.5480,10130
17.5500,17252
17.5520,9362
17.5540,5249
17.5560,15363
17.5580,2096
17.5600,9186
17.5620,28310
17.5640,25174
17.5660,1952
17.5680,3744
17.5700,4753
17.5720,5329
17.5740,25110
17.5760,13155
17.5780,5777
17.5800,6753
17.5820,5185
17.5840,3024
17.5860,17764
17.5880,32423
17.5900,13987
17.5920,3088
17.5940,24453
17.5960,9314
17.5980,15667
17.6000,13747
17.6020,4385
17.6040,2448
17.6060,6225
17.6080,2816
17.6100,3792
17.6120,14547
17.6140,6593
17.6160,8674
17.6180,2864
17.6200,2992
17.6220,11458
17.6240,5825
17.6260,14003
17.6280,11138
17.6300,7009
17.6320,3200
17.6340,10322
17.6360,7569
17.6380,51148
17.6400,13459
17.6420,28182
17.6440,48731
17.6460,4193
17.6480,2832
17.6500,36520
17.6520,3840
17.6540,1824
17.6560,21077
17.6580,1120
17.6600,2096
17.6620,7249
17.6640,2080
17.6660,3120
17.6680,8546
17.6700,2384
17.6720,7057
17.6740,4385
17.6760,2240
17.6780,14099
17.6800,18436
17.6820,5985
17.6840,7457
17.6860,7425
17.6880,15955
17.6900,21317
17.6920,3456
17.6940,8802
17.6960,5617
17.6980,6097
17.7000,5777
17.7020,24485
17.7040,30887
17.7060,17668
17.7080,9186
17.7100,3248
17.7120,10818
17.7140,3216
17.7160,18836
17.7180,6833
17.7200,11154
17.7220,11570
17.7240,4000
17.7260,13827
17.7280,11538
17.7300,11218
17.7320,4817
17.7340,1840
17.7360,4129
17.7380,8546
17.7400,12258
17.7420,2608
17.7440,4641
17.7460,13715
17.7480,6817
17.7500,14323
17.7520,1952
17.7540,8177
17.7560,8626
17.7580,16388
17.7600,2080
17.7620,18196
17.7640,8097
17.7660,8354
17.7680,6545
17.7700,12643
17.7720,3728
17.7740,20196
17.7760,14883
17.7780,4897
17.7800,11858
17.7820,2384
17.7840,2736
17.7860,4129
17.7880,14355
17.7900,11090
17.7920,1856
17.7940,27782
17.7960,3968
17.7980,11186
17.8000,4961
17.8020,6785
17.8040,4048
17.8060,3728
17.8080,22165
17.8100,1376
17.8120,15123
17.8140,3072
17.8160,2144
17.8180,3248
17.8200,11650
17.8220,1872
17.8240,14755
17.8260,20533
17.8280,1664
17.8300,6113
17.8320,10642
17.8340,8690
17.8360,2304
17.8380,11474
17.8400,2112
17.8420,25430
17.8440,30663
17.8460,19012
17.8480,2192
17.8500,23989
17.8520,3392
17.8540,8626
17.8560,2480
17.8580,10546
17.8600,3168
17.8620,4961
17.8640,7745
17.8660,8001
17.8680,12611
17.8700,12883
17.8720,2496
17.8740,7313
17.8760,5041
17.8780,2704
17.8800,8626
17.8820,13571
17.8840,12226
17.8860,9026
17.8880,2480
17.8900,6529
17.8920,5841
17.8940,3360
17.8960,26406
17.8980,1424
17.9000,18820
17.9020,2464
17.9040,53132
17.9060,5473
17.9080,17748
17.9100,8338
17.9120,1936
17.9140,4097
17.9160,2112
17.9180,3520
17.9200,10466
17.9220,3136
17.9240,14371
17.9260,5025
17.9280,7137
17.9300,2368
17.9320,8177
17.9340,10882
17.9360,37289
17.9380,7089
17.9400,2144
17.9420,2688
17.9440,20821
17.9460,4241
17.9480,2736
17.9500,4769
17.9520,2496
17.9540,3584
17.9560,1968
17.9580,6081
17.9600,4609
17.9620,1712
17.9640,3344
17.9660,5665
17.9680,4289
17.9700,3488
17.9720,2400
17.9740,9442
17.9760,16516
17.9780,2192
17.9800,2752
17.9820,11906
17.9840,8177
17.9860,8466
17.9880,1920
17.9900,2336
17.9920,9714
17.9940,7105
17.9960,1616
17.9980,23845
18.0000,13843
18.0020,2000
18.0040,31943
18.0060,9138
18.0080,13155
18.0100,7585
18.0120,8466
18.0140,2304
18.0160,1632
18.0180,12579
18.0200,2496
18.0220,4048
18.0240,1600
18.0260,1984
18.0280,13779
18.0300,2176
18.0320,17380
18.0340,1552
18.0360,30263
18.0380,2368
18.0400,6017
18.0420,12018
18.0440,12531
18.0460,3520
18.0480,6369
18.0500,2336
18.0520,4481
18.0540,25766
18.0560,1712
18.0580,5953
18.0600,1920
18.0620,9106
18.0640,1920
18.0660,31127
18.0680,2896
18.0700,15187
18.0720,2640
18.0740,6577
18.0760,5569
18.0780,6033
18.0800,4865
18.0820,5729
18.0840,5217
18.0860,3664
18.0880,7633
18.0900,4785
18.0920,6097
18.0940,3600
18.0960,8226
18.0980,29159
18.1000,7009
18.1020,10194
18.1040,1248
18.1060,1920
18.1080,2848
18.1100,12050
18.1120,11858
18.1140,4977
18.1160,21893
18.1180,9730
18.1200,4545
18.1220,2624
18.1240,25782
18.1260,19588
18.1280,4769
18.1300,3472
18.1320,2976
18.1340,2656
18.1360,7601
18.1380,25942
18.1400,10194
18.1420,4993
18.1440,7889
18.1460,23093
18.1480,5793
18.1500,8145
18.1520,9730
18.1540,14163
18.1560,4753
18.1580,6369
18.1600,6049
18.1620,19732
18.1640,20901
18.1660,1296
18.1680,1440
18.1700,7601
18.1720,2896
18.1740,13827
18.1760,17012
18.1780,8914
18.1800,15139
18.1820,17732
18.1840,5121
18.1860,18596
18.1880,7665
18.1900,7809
18.1920,17300
18.1940,3648
18.1960,3760
18.1980,1680
18.2000,6001
18.2020,6289
18.2040,13187
18.2060,1856
18.2080,8738
18.2100,2080
18.2120,1312
18.2140,2384
18.2160,12435
18.2180,1936
18.2200,2064
18.2220,7697
18.2240,22485
18.2260,6417
18.2280,1600
18.2300,23877
18.2320,22741
18.2340,13475
18.2360,9954
18.2380,2992
18.2400,3904
18.2420,4097
18.2440,6993
18.2460,13715
18.2480,1952
18.2500,13363
18.2520,2528
18.2540,5569
18.2560,11026
18.2580,10290
18.2600,14611
18.2620,14899
18.2640,10242
18.2660,6433
18.2680,3264
18.2700,10018
18.2720,1760
18.2740,17716
18.2760,2752
18.2780,8434
18.2800,2768
18.2820,13187
18.2840,20356
18.2860,19540
18.2880,10834
18.2900,11346
18.2920,7553
18.2940,8177
18.2960,6897
18.2980,2976
18.3000,1840
18.3020,7649
18.3040,8738
18.3060,18724
18.3080,16051
18.3100,5201
18.3120,2560
18.3140,8546
18.3160,15459
18.3180,2720
18.3200,5409
18.3220,12819
18.3240,12515
18.3260,7857
18.3280,1680
18.3300,1760
18.3320,1696
18.3340,6465
18.3360,5473
18.3380,4401
18.3400,11218
18.3420,21301
18.3440,19028
18.3460,18308
18.3480,13395
18.3500,3600
18.3520,4129
18.3540,4305
18.3560,1952
18.3580,4321
18.3600,5393
18.3620,15507
18.3640,6881
18.3660,4545
18.3680,1776
18.3700,2912
18.3720,9410
18.3740,5649
18.3760,19284
18.3780,16051
18.3800,1968
18.3820,5793
18.3840,15027
18.3860,13187
18.3880,7585
18.3900,10818
18.3920,8978
18.3940,3024
18.3960,5601
18.3980,2592
18.4000,1856
18.4020,4289
18.4040,12643
18.4060,10834
18.4080,2096
18.4100,9890
18.4120,11042
18.4140,7377
18.4160,1776
18.4180,2320
18.4200,2368
18.4220,3408
18.4240,3792
18.4260,3904
18.4280,1952
18.4300,7969
18.4320,1680
18.4340,45243
18.4360,7889
18.4380,6065
18.4400,3120
18.4420,2528
18.4440,6913
18.4460,2272
18.4480,2560
18.4500,2320
18.4520,11394
18.4540,12210
18.4560,9362
18.4580,2784
18.4600,8578
18.4620,7153
18.4640,13971
18.4660,8129
18.4680,1936
18.4700,8866
18.4720,3712
18.4740,1808
18.4760,14867
18.4780,2144
18.4800,3200
18.4820,6049
18.4840,6513
18.4860,1840
18.4880,17796
18.4900,3584
18.4920,9042
18.4940,17508
18.4960,13251
18.4980,1248
18.5000,14003
18.5020,10034
18.5040,4545
18.5060,15619
18.5080,15107
18.5100,12611
18.5120,19492
18.5140,17668
18.5160,18084
18.5180,4769
18.5200,1408
18.5220,26822
18.5240,11426
18.5260,7729
18.5280,2400
18.5300,2608
18.5320,26086
18.5340,2128
18.5360,8850
18.5380,15907
18.5400,2608
18.5420,5537
18.5440,1744
18.5460,9474
18.5480,6785
18.5500,8514
18.5520,1744
18.5540,14675
18.5560,2400
18.5580,1328
18.5600,13635
18.5620,1984
18.5640,11234
18.5660,4257
18.5680,3104
18.5700,8177
18.5720,11458
18.5740,4753
18.5760,8898
18.5780,10146
18.5800,2608
18.5820,1952
18.5840,17460
18.5860,4961
18.5880,2016
18.5900,5009
18.5920,1680
18.5940,1456
18.5960,2192
18.5980,4305
18.6000,19556
18.6020,8898
18.6040,2240
18.6060,3136
18.6080,4817
18.6100,15939
18.6120,1408
18.6140,5521
18.6160,2784
18.6180,5297
18.6200,11490
18.6220,8514
18.6240,7537
18.6260,2144
18.6280,1632
18.6300,8177
18.6320,3376
18.6340,30119
18.6360,2896
18.6380,12819
18.6400,2336
18.6420,1968
18.6440,2688
18.6460,16211
18.6480,4481
18.6500,5169
18.6520,8177
18.6540,1472
18.6560,9650
18.6580,8354
18.6600,10834
18.6620,3104
18.6640,12771
18.6660,9442
18.6680,4689
18.6700,8930
18.6720,11554
18.6740,10450
18.6760,9058
18.6780,18132
18.6800,2144
18.6820,5473
18.6840,1856
18.6860,6753
18.6880,10274
18.6900,3616
18.6920,9314
18.6940,7681
18.6960,17940
18.6980,22325
18.7000,7969
18.7020,7905
18.7040,1856
18.7060,2528
18.7080,6097
18.7100,7937
18.7120,20661
18.7140,3408
18.7160,3104
18.7180,1760
18.7200,10706
18.7220,9266
18.7240,2752
18.7260,1664
18.7280,1952
18.7300,5361
18.7320,1808
18.7340,9218
18.7360,12114
18.7380,1632
18.7400,2240
18.7420,1696
18.7440,3600
18.7460,5985
18.7480,9938
18.7500,6033
18.7520,17348
18.7540,6081
18.7560,1504
18.7580,4273
18.7600,6129
18.7620,3504
18.7640,1872
18.7660,15427
18.7680,1360
18.7700,6337
18.7720,9554
18.7740,10850
18.7760,7169
18.7780,2176
18.7800,3088
18.7820,1504
18.7840,21157
18.7860,11586
18.7880,17508
18.7900,24806
18.7920,23637
18.7940,15331
18.7960,2912
18.7980,5057
18.8000,4465
18.8020,6481
18.8040,4161
18.8060,9874
18.8080,2752
18.8100,4769
18.8120,2464
18.8140,17892
18.8160,5009
18.8180,3904
18.8200,2256
18.8220,5121
18.8240,13859
18.8260,5041
18.8280,2912
18.8300,5649
18.8320,11314
18.8340,2144
18.8360,12419
18.8380,5889
18.8400,2736
18.8420,1664
18.8440,12867
18.8460,6289
18.8480,12707
18.8500,29335
18.8520,4145
18.8540,1360
18.8560,19940
18.8580,15955
18.8600,4433
18.8620,11826
18.8640,5265
18.8660,6193
18.8680,18884
18.8700,4097
18.8720,14083
18.8740,19876
18.8760,5505
18.8780,41290
18.8800,3872
18.8820,3088
18.8840,14019
18.8860,1504
18.8880,26742
18.8900,15235
18.8920,13379
18.8940,2656
18.8960,2128
18.8980,9778
18.9000,3296
18.9020,1936
18.9040,3600
18.9060,3280
18.9080,1376
18.9100,8498
18.9120,3760
18.9140,2192
18.9160,3264
18.9180,2000
18.9200,2048
18.9220,7473
18.9240,7201
18.9260,15971
18.9280,10674
18.9300,8033
18.9320,19796
18.9340,12098
18.9360,2176
18.9380,1824
18.9400,2352
18.9420,6017
18.9440,1760
18.9460,1296
18.9480,6721
18.9500,11554
18.9520,12242
18.9540,19364
18.9560,15427
18.9580,8177
18.9600,13491
18.9620,22629
18.9640,2912
18.9660,10050
18.9680,1760
18.9700,2800
18.9720,5025
18.9740,6833
18.9760,4545
18.9780,2096
18.9800,12963
18.9820,21237
18.9840,3168
18.9860,1424
18.9880,7985
18.9900,8145
18.9920,8145
18.9940,2640
18.9960,12771
18.9980,2960
19.0000,3712
19.0020,1856
19.0040,2336
19.0060,6529
19.0080,1760
19.0100,5457
19.0120,16740
19.0140,8866
19.0160,5345
19.0180,3840
19.0200,1584
19.0220,16019
19.0240,2528
19.0260,8578
19.0280,3984
19.0300,2224
19.0320,8418
19.0340,2896
19.0360,1520
19.0380,3728
19.0400,3280
19.0420,1632
19.0440,5473
19.0460,1632
19.0480,5761
19.0500,3248
19.0520,4737
19.0540,1792
19.0560,8177
19.0580,2704
19.0600,2960
19.0620,1456
19.0640,13763
19.0660,1936
19.0680,21781
19.0700,9474
19.0720,2640
19.0740,4433
19.0760,6961
19.0780,21013
19.0800,11842
19.0820,2432
19.0840,7153
19.0860,2192
19.0880,1440
19.0900,3264
19.0920,2112
19.0940,8161
19.0960,14803
19.0980,2896
19.1000,7217
19.1020,17796
19.1040,1856
19.1060,6961
19.1080,10594
19.1100,1952
19.1120,1808
19.1140,4513
19.1160,7153
19.1180,6321
19.1200,2464
19.1220,4177
19.1240,1968
