Tempo(s),EMG_Value
0.0000,784
0.0020,1872
0.0040,272
0.0060,560
0.0080,848
0.0100,672
0.0120,432
0.0140,448
0.0160,528
0.0180,416
0.0200,816
0.0220,416
0.0240,640
0.0260,464
0.0280,352
0.0300,656
0.0320,704
0.0340,656
0.0360,1072
0.0380,400
0.0400,672
0.0420,992
0.0440,1072
0.0460,448
0.0480,816
0.0500,480
0.0520,688
0.0540,576
0.0560,1488
0.0580,384
0.0600,848
0.0620,2704
0.0640,1184
0.0660,448
0.0680,704
0.0700,1440
0.0720,656
0.0740,464
0.0760,416
0.0780,464
0.0800,736
0.0820,320
0.0840,656
0.0860,448
0.0880,640
0.0900,912
0.0920,688
0.0940,560
0.0960,1088
0.0980,1584
0.1000,784
0.1020,784
0.1040,480
0.1060,1952
0.1080,2096
0.1100,816
0.1120,560
0.1140,480
0.1160,896
0.1180,976
0.1200,288
0.1220,608
0.1240,1456
0.1260,768
0.1280,816
0.1300,416
0.1320,528
0.1340,512
0.1360,656
0.1380,512
0.1400,704
0.1420,896
0.1440,1632
0.1460,672
0.1480,512
0.1500,512
0.1520,400
0.1540,480
0.1560,688
0.1580,576
0.1600,496
0.1620,560
0.1640,352
0.1660,816
0.1680,1072
0.1700,1632
0.1720,576
0.1740,912
0.1760,864
0.1780,464
0.1800,448
0.1820,256
0.1840,720
0.1860,1184
0.1880,480
0.1900,784
0.1920,992
0.1940,416
0.1960,464
0.1980,880
0.2000,1120
0.2020,704
0.2040,256
0.2060,176
0.2080,560
0.2100,656
0.2120,704
0.2140,496
0.2160,576
0.2180,560
0.2200,704
0.2220,784
0.2240,896
0.2260,752
0.2280,560
0.2300,992
0.2320,320
0.2340,656
0.2360,2816
0.2380,1440
0.2400,576
0.2420,336
0.2440,848
0.2460,640
0.2480,672
0.2500,4545
0.2520,4241
0.2540,896
0.2560,848
0.2580,672
0.2600,256
0.2620,1216
0.2640,928
0.2660,672
0.2680,480
0.2700,240
0.2720,352
0.2740,704
0.2760,560
0.2780,448
0.2800,592
0.2820,448
0.2840,880
0.2860,560
0.2880,160
0.2900,2112
0.2920,704
0.2940,320
0.2960,192
0.2980,352
0.3000,1024
0.3020,1152
0.3040,720
0.3060,592
0.3080,1072
0.3100,1296
0.3120,608
0.3140,544
0.3160,400
0.3180,528
0.3200,672
0.3220,1040
0.3240,400
0.3260,400
0.3280,1248
0.3300,976
0.3320,608
0.3340,640
0.3360,784
0.3380,896
0.3400,512
0.3420,336
0.3440,2720
0.3460,480
0.3480,928
0.3500,688
0.3520,928
0.3540,592
0.3560,720
0.3580,640
0.3600,4273
0.3620,4657
0.3640,832
0.3660,480
0.3680,848
0.3700,512
0.3720,800
0.3740,608
0.3760,560
0.3780,848
0.3800,240
0.3820,720
0.3840,656
0.3860,640
0.3880,768
0.3900,400
0.3920,288
0.3940,768
0.3960,720
0.3980,1312
0.4000,544
0.4020,672
0.4040,704
0.4060,3392
0.4080,816
0.4100,608
0.4120,400
0.4140,544
0.4160,464
0.4180,768
0.4200,896
0.4220,928
0.4240,272
0.4260,2384
0.4280,416
0.4300,816
0.4320,464
0.4340,80
0.4360,928
0.4380,560
0.4400,768
0.4420,1072
0.4440,1552
0.4460,1024
0.4480,336
0.4500,544
0.4520,400
0.4540,896
0.4560,816
0.4580,736
0.4600,1696
0.4620,720
0.4640,1104
0.4660,784
0.4680,4673
0.4700,7457
0.4720,528
0.4740,608
0.4760,576
0.4780,448
0.4800,1152
0.4820,512
0.4840,736
0.4860,688
0.4880,320
0.4900,1152
0.4920,608
0.4940,928
0.4960,576
0.4980,736
0.5000,672
0.5020,496
0.5040,432
0.5060,1216
0.5080,400
0.5100,688
0.5120,560
0.5140,928
0.5160,2240
0.5180,1296
0.5200,464
0.5220,752
0.5240,1120
0.5260,272
0.5280,944
0.5300,688
0.5320,480
0.5340,288
0.5360,672
0.5380,512
0.5400,656
0.5420,784
0.5440,1360
0.5460,576
0.5480,672
0.5500,352
0.5520,480
0.5540,448
0.5560,448
0.5580,656
0.5600,1088
0.5620,416
0.5640,784
0.5660,432
0.5680,448
0.5700,480
0.5720,448
0.5740,576
0.5760,1280
0.5780,592
0.5800,352
0.5820,592
0.5840,560
0.5860,640
0.5880,528
0.5900,448
0.5920,832
0.5940,688
0.5960,768
0.5980,256
0.6000,2336
0.6020,1696
0.6040,1504
0.6060,496
0.6080,592
0.6100,560
0.6120,400
0.6140,1744
0.6160,720
0.6180,272
0.6200,512
0.6220,848
0.6240,720
0.6260,848
0.6280,992
0.6300,288
0.6320,464
0.6340,848
0.6360,608
0.6380,736
0.6400,528
0.6420,448
0.6440,336
0.6460,1328
0.6480,432
0.6500,752
0.6520,688
0.6540,448
0.6560,832
0.6580,816
0.6600,608
0.6620,768
0.6640,864
0.6660,928
0.6680,576
0.6700,432
0.6720,480
0.6740,592
0.6760,416
0.6780,944
0.6800,896
0.6820,512
0.6840,320
0.6860,272
0.6880,1072
0.6900,640
0.6920,592
0.6940,1696
0.6960,976
0.6980,1040
0.7000,384
0.7020,1344
0.7040,464
0.7060,944
0.7080,656
0.7100,480
0.7120,704
0.7140,768
0.7160,400
0.7180,816
0.7200,1088
0.7220,624
0.7240,256
0.7260,528
0.7280,832
0.7300,544
0.7320,656
0.7340,384
0.7360,400
0.7380,528
0.7400,512
0.7420,784
0.7440,448
0.7460,1248
0.7480,528
0.7500,1552
0.7520,1744
0.7540,224
0.7560,768
0.7580,704
0.7600,1344
0.7620,976
0.7640,1168
0.7660,992
0.7680,800
0.7700,1280
0.7720,544
0.7740,784
0.7760,976
0.7780,320
0.7800,496
0.7820,832
0.7840,416
0.7860,464
0.7880,720
0.7900,528
0.7920,1168
0.7940,1632
0.7960,1296
0.7980,1088
0.8000,384
0.8020,480
0.8040,560
0.8060,432
0.8080,912
0.8100,832
0.8120,448
0.8140,1552
0.8160,1472
0.8180,1568
0.8200,544
0.8220,1792
0.8240,1440
0.8260,624
0.8280,720
0.8300,752
0.8320,1200
0.8340,832
0.8360,528
0.8380,800
0.8400,480
0.8420,1552
0.8440,816
0.8460,688
0.8480,512
0.8500,720
0.8520,608
0.8540,1232
0.8560,816
0.8580,576
0.8600,736
0.8620,496
0.8640,288
0.8660,672
0.8680,592
0.8700,352
0.8720,784
0.8740,784
0.8760,672
0.8780,480
0.8800,656
0.8820,1024
0.8840,752
0.8860,224
0.8880,512
0.8900,416
0.8920,672
0.8940,1024
0.8960,896
0.8980,608
0.9000,1088
0.9020,720
0.9040,1216
0.9060,352
0.9080,1488
0.9100,672
0.9120,8626
0.9140,3872
0.9160,1808
0.9180,336
0.9200,336
0.9220,544
0.9240,688
0.9260,944
0.9280,992
0.9300,688
0.9320,512
0.9340,640
0.9360,672
0.9380,736
0.9400,672
0.9420,512
0.9440,2000
0.9460,640
0.9480,688
0.9500,1120
0.9520,704
0.9540,656
0.9560,592
0.9580,800
0.9600,1040
0.9620,528
0.9640,1200
0.9660,944
0.9680,1360
0.9700,1168
0.9720,1120
0.9740,1040
0.9760,432
0.9780,416
0.9800,448
0.9820,960
0.9840,608
0.9860,1248
0.9880,896
0.9900,480
0.9920,768
0.9940,432
0.9960,784
0.9980,288
1.0000,608
1.0020,576
1.0040,720
1.0060,512
1.0080,432
1.0100,592
1.0120,512
1.0140,464
1.0160,864
1.0180,560
1.0200,688
1.0220,224
1.0240,512
1.0260,544
1.0280,464
1.0300,832
1.0320,1408
1.0340,720
1.0360,960
1.0380,528
1.0400,704
1.0420,784
1.0440,6401
1.0460,5265
1.0480,944
1.0500,800
1.0520,464
1.0540,416
1.0560,464
1.0580,656
1.0600,1280
1.0620,816
1.0640,560
1.0660,304
1.0680,544
1.0700,1040
1.0720,688
1.0740,704
1.0760,640
1.0780,784
1.0800,448
1.0820,608
1.0840,448
1.0860,832
1.0880,720
1.0900,544
1.0920,1200
1.0940,768
1.0960,672
1.0980,544
1.1000,928
1.1020,1056
1.1040,512
1.1060,352
1.1080,592
1.1100,448
1.1120,768
1.1140,1024
1.1160,1792
1.1180,1104
1.1200,704
1.1220,352
1.1240,336
1.1260,608
1.1280,400
1.1300,544
1.1320,592
1.1340,1168
1.1360,656
1.1380,1024
1.1400,992
1.1420,528
1.1440,1056
1.1460,1200
1.1480,512
1.1500,848
1.1520,720
1.1540,672
1.1560,160
1.1580,512
1.1600,640
1.1620,4737
1.1640,8850
1.1660,960
1.1680,736
1.1700,160
1.1720,1184
1.1740,640
1.1760,160
1.1780,768
1.1800,272
1.1820,752
1.1840,1152
1.1860,784
1.1880,1168
1.1900,688
1.1920,1744
1.1940,3296
1.1960,2016
1.1980,528
1.2000,944
1.2020,384
1.2040,736
1.2060,560
1.2080,912
1.2100,96
1.2120,560
1.2140,848
1.2160,1456
1.2180,2080
1.2200,480
1.2220,496
1.2240,784
1.2260,448
1.2280,1392
1.2300,768
1.2320,624
1.2340,1280
1.2360,432
1.2380,304
1.2400,640
1.2420,320
1.2440,480
1.2460,1232
1.2480,480
1.2500,2096
1.2520,384
1.2540,384
1.2560,736
1.2580,528
1.2600,1488
1.2620,544
1.2640,848
1.2660,608
1.2680,864
1.2700,512
1.2720,1056
1.2740,592
1.2760,464
1.2780,576
1.2800,1296
1.2820,928
1.2840,6113
1.2860,1872
1.2880,784
1.2900,912
1.2920,576
1.2940,1216
1.2960,432
1.2980,784
1.3000,848
1.3020,608
1.3040,800
1.3060,1024
1.3080,1072
1.3100,2848
1.3120,768
1.3140,1072
1.3160,544
1.3180,1328
1.3200,144
1.3220,336
1.3240,480
1.3260,576
1.3280,480
1.3300,368
1.3320,512
1.3340,608
1.3360,1600
1.3380,416
1.3400,1312
1.3420,608
1.3440,528
1.3460,992
1.3480,848
1.3500,496
1.3520,800
1.3540,688
1.3560,448
1.3580,640
1.3600,864
1.3620,832
1.3640,944
1.3660,672
1.3680,832
1.3700,768
1.3720,1712
1.3740,1312
1.3760,640
1.3780,688
1.3800,432
1.3820,320
1.3840,1744
1.3860,720
1.3880,416
1.3900,768
1.3920,672
1.3940,304
1.3960,656
1.3980,576
1.4000,560
1.4020,784
1.4040,768
1.4060,496
1.4080,784
1.4100,7585
1.4120,1968
1.4140,768
1.4160,224
1.4180,560
1.4200,2688
1.4220,976
1.4240,656
1.4260,1040
1.4280,1136
1.4300,1408
1.4320,1216
1.4340,784
1.4360,880
1.4380,192
1.4400,640
1.4420,656
1.4440,832
1.4460,576
1.4480,640
1.4500,496
1.4520,448
1.4540,1104
1.4560,640
1.4580,512
1.4600,1632
1.4620,480
1.4640,368
1.4660,1232
1.4680,1296
1.4700,1040
1.4720,832
1.4740,800
1.4760,400
1.4780,912
1.4800,960
1.4820,1792
1.4840,1424
1.4860,1168
1.4880,2096
1.4900,896
1.4920,976
1.4940,1120
1.4960,1328
1.4980,1568
1.5000,2112
1.5020,704
1.5040,0
1.5060,2624
1.5080,1424
1.5100,1088
1.5120,400
1.5140,624
1.5160,560
1.5180,944
1.5200,832
1.5220,736
1.5240,544
1.5260,608
1.5280,336
1.5300,736
1.5320,1120
1.5340,816
1.5360,416
1.5380,784
1.5400,640
1.5420,304
1.5440,224
1.5460,1264
1.5480,1456
1.5500,576
1.5520,496
1.5540,688
1.5560,592
1.5580,720
1.5600,1024
1.5620,416
1.5640,1024
1.5660,736
1.5680,1056
1.5700,720
1.5720,544
1.5740,480
1.5760,432
1.5780,1152
1.5800,704
1.5820,672
1.5840,704
1.5860,640
1.5880,816
1.5900,752
1.5920,464
1.5940,1056
1.5960,640
1.5980,272
1.6000,368
1.6020,544
1.6040,1120
1.6060,2736
1.6080,1632
1.6100,976
1.6120,992
1.6140,688
1.6160,176
1.6180,592
1.6200,768
1.6220,656
1.6240,672
1.6260,2192
1.6280,800
1.6300,1104
1.6320,1264
1.6340,1952
1.6360,1504
1.6380,400
1.6400,608
1.6420,768
1.6440,448
1.6460,1232
1.6480,528
1.6500,672
1.6520,640
1.6540,432
1.6560,480
1.6580,784
1.6600,800
1.6620,1072
1.6640,1408
1.6660,816
1.6680,944
1.6700,896
1.6720,544
1.6740,560
1.6760,592
1.6780,656
1.6800,928
1.6820,2720
1.6840,496
1.6860,1952
1.6880,656
1.6900,752
1.6920,4241
1.6940,1232
1.6960,3488
1.6980,336
1.7000,704
1.7020,736
1.7040,544
1.7060,672
1.7080,624
1.7100,560
1.7120,1904
1.7140,656
1.7160,704
1.7180,384
1.7200,480
1.7220,768
1.7240,640
1.7260,512
1.7280,688
1.7300,592
1.7320,640
1.7340,1824
1.7360,880
1.7380,736
1.7400,688
1.7420,512
1.7440,528
1.7460,672
1.7480,768
1.7500,480
1.7520,1280
1.7540,464
1.7560,672
1.7580,432
1.7600,480
1.7620,464
1.7640,656
1.7660,544
1.7680,1040
1.7700,928
1.7720,528
1.7740,336
1.7760,608
1.7780,1552
1.7800,672
1.7820,1328
1.7840,752
1.7860,736
1.7880,688
1.7900,1040
1.7920,1488
1.7940,640
1.7960,544
1.7980,1040
1.8000,448
1.8020,1792
1.8040,192
1.8060,688
1.8080,832
1.8100,1456
1.8120,432
1.8140,1168
1.8160,528
1.8180,976
1.8200,688
1.8220,1088
1.8240,208
1.8260,784
1.8280,400
1.8300,528
1.8320,592
1.8340,576
1.8360,864
1.8380,336
1.8400,448
1.8420,544
1.8440,576
1.8460,336
1.8480,288
1.8500,208
1.8520,656
1.8540,592
1.8560,384
1.8580,656
1.8600,336
1.8620,784
1.8640,1040
1.8660,976
1.8680,416
1.8700,1152
1.8720,912
1.8740,928
1.8760,5489
1.8780,1248
1.8800,976
1.8820,784
1.8840,768
1.8860,848
1.8880,0
1.8900,992
1.8920,368
1.8940,192
1.8960,448
1.8980,784
1.9000,496
1.9020,640
1.9040,432
1.9060,1024
1.9080,1360
1.9100,736
1.9120,960
1.9140,384
1.9160,464
1.9180,1072
1.9200,1168
1.9220,544
1.9240,336
1.9260,416
1.9280,768
1.9300,2320
1.9320,864
1.9340,816
1.9360,384
1.9380,288
1.9400,880
1.9420,1520
1.9440,496
1.9460,640
1.9480,928
1.9500,1360
1.9520,640
1.9540,736
1.9560,704
1.9580,608
1.9600,432
1.9620,880
1.9640,512
1.9660,928
1.9680,960
1.9700,448
1.9720,352
1.9740,352
1.9760,1744
1.9780,576
1.9800,656
1.9820,1072
1.9840,2368
1.9860,928
1.9880,608
1.9900,1312
1.9920,592
1.9940,736
1.9960,496
1.9980,560
2.0000,4705
2.0020,5169
2.0040,544
2.0060,960
2.0080,560
2.0100,2288
2.0120,480
2.0140,672
2.0160,976
2.0180,640
2.0200,768
2.0220,352
2.0240,2688
2.0260,1120
2.0280,1024
2.0300,1248
2.0320,448
2.0340,1168
2.0360,432
2.0380,448
2.0400,448
2.0420,832
2.0440,960
2.0460,720
2.0480,192
2.0500,720
2.0520,768
2.0540,736
2.0560,416
2.0580,512
2.0600,512
2.0620,384
2.0640,288
2.0660,816
2.0680,432
2.0700,768
2.0720,1152
2.0740,304
2.0760,592
2.0780,1072
2.0800,416
2.0820,864
2.0840,256
2.0860,672
2.0880,928
2.0900,832
2.0920,512
2.0940,704
2.0960,784
2.0980,448
2.1000,1200
2.1020,592
2.1040,704
2.1060,592
2.1080,1024
2.1100,848
2.1120,704
2.1140,464
2.1160,688
2.1180,1856
2.1200,400
2.1220,528
2.1240,384
2.1260,688
2.1280,576
2.1300,928
2.1320,912
2.1340,1280
2.1360,784
2.1380,656
2.1400,400
2.1420,3904
2.1440,6481
2.1460,320
2.1480,160
2.1500,1344
2.1520,944
2.1540,656
2.1560,288
2.1580,896
2.1600,1984
2.1620,256
2.1640,624
2.1660,560
2.1680,736
2.1700,496
2.1720,576
2.1740,928
2.1760,1008
2.1780,1200
2.1800,544
2.1820,1024
2.1840,304
2.1860,928
2.1880,1360
2.1900,592
2.1920,848
2.1940,544
2.1960,1296
2.1980,912
2.2000,768
2.2020,576
2.2040,688
2.2060,224
2.2080,352
2.2100,384
2.2120,896
2.2140,480
2.2160,816
2.2180,784
2.2200,736
2.2220,1040
2.2240,1376
2.2260,2208
2.2280,2080
2.2300,880
2.2320,480
2.2340,416
2.2360,1104
2.2380,704
2.2400,832
2.2420,1184
2.2440,336
2.2460,928
2.2480,768
2.2500,512
2.2520,352
2.2540,720
2.2560,368
2.2580,592
2.2600,1408
2.2620,352
2.2640,656
2.2660,672
2.2680,576
2.2700,576
2.2720,720
2.2740,4609
2.2760,7985
2.2780,944
2.2800,384
2.2820,848
2.2840,464
2.2860,800
2.2880,944
2.2900,688
2.2920,3200
2.2940,544
2.2960,576
2.2980,352
2.3000,656
2.3020,864
2.3040,1024
2.3060,1376
2.3080,592
2.3100,976
2.3120,368
2.3140,720
2.3160,1040
2.3180,976
2.3200,576
2.3220,672
2.3240,448
2.3260,480
2.3280,464
2.3300,656
2.3320,480
2.3340,640
2.3360,304
2.3380,832
2.3400,704
2.3420,784
2.3440,464
2.3460,704
2.3480,928
2.3500,576
2.3520,1024
2.3540,832
2.3560,480
2.3580,2768
2.3600,544
2.3620,656
2.3640,560
2.3660,1808
2.3680,480
2.3700,704
2.3720,624
2.3740,688
2.3760,1232
2.3780,672
2.3800,960
2.3820,736
2.3840,800
2.3860,704
2.3880,640
2.3900,768
2.3920,1344
2.3940,720
2.3960,928
2.3980,560
2.4000,1616
2.4020,560
2.4040,1136
2.4060,3296
2.4080,6497
2.4100,608
2.4120,656
2.4140,592
2.4160,400
2.4180,400
2.4200,912
2.4220,1088
2.4240,496
2.4260,832
2.4280,848
2.4300,912
2.4320,816
2.4340,992
2.4360,1200
2.4380,864
2.4400,272
2.4420,976
2.4440,400
2.4460,960
2.4480,304
2.4500,528
2.4520,592
2.4540,336
2.4560,1376
2.4580,720
2.4600,912
2.4620,3680
2.4640,1072
2.4660,384
2.4680,224
2.4700,656
2.4720,752
2.4740,976
2.4760,592
2.4780,768
2.4800,528
2.4820,640
2.4840,416
2.4860,944
2.4880,512
2.4900,1024
2.4920,432
2.4940,976
2.4960,560
2.4980,528
2.5000,512
2.5020,528
2.5040,432
2.5060,1024
2.5080,576
2.5100,160
2.5120,272
2.5140,576
2.5160,1552
2.5180,1328
2.5200,992
2.5220,736
2.5240,736
2.5260,304
2.5280,400
2.5300,528
2.5320,6945
2.5340,6369
2.5360,784
2.5380,592
2.5400,304
2.5420,1008
2.5440,272
2.5460,464
2.5480,752
2.5500,800
2.5520,912
2.5540,464
2.5560,672
2.5580,432
2.5600,224
2.5620,480
2.5640,656
2.5660,160
2.5680,304
2.5700,704
2.5720,736
2.5740,368
2.5760,512
2.5780,960
2.5800,512
2.5820,1536
2.5840,640
2.5860,384
2.5880,592
2.5900,416
2.5920,736
2.5940,752
2.5960,640
2.5980,528
2.6000,1664
2.6020,608
2.6040,464
2.6060,352
2.6080,800
2.6100,992
2.6120,576
2.6140,704
2.6160,1200
2.6180,576
2.6200,960
2.6220,448
2.6240,816
2.6260,784
2.6280,656
2.6300,336
2.6320,496
2.6340,448
2.6360,144
2.6380,480
2.6400,368
2.6420,1168
2.6440,896
2.6460,736
2.6480,416
2.6500,608
2.6520,576
2.6540,1328
2.6560,656
2.6580,1344
2.6600,448
2.6620,960
2.6640,400
2.6660,464
2.6680,1312
2.6700,432
2.6720,704
2.6740,832
2.6760,512
2.6780,864
2.6800,448
2.6820,944
2.6840,416
2.6860,928
2.6880,960
2.6900,496
2.6920,512
2.6940,832
2.6960,272
2.6980,816
2.7000,736
2.7020,416
2.7040,320
2.7060,560
2.7080,688
2.7100,1280
2.7120,560
2.7140,912
2.7160,416
2.7180,672
2.7200,1472
2.7220,736
2.7240,848
2.7260,560
2.7280,848
2.7300,768
2.7320,2000
2.7340,672
2.7360,784
2.7380,672
2.7400,416
2.7420,1552
2.7440,720
2.7460,608
2.7480,736
2.7500,608
2.7520,448
2.7540,480
2.7560,592
2.7580,768
2.7600,432
2.7620,240
2.7640,544
2.7660,608
2.7680,640
2.7700,304
2.7720,1312
2.7740,592
2.7760,464
2.7780,464
2.7800,528
2.7820,640
2.7840,656
2.7860,848
2.7880,944
2.7900,2688
2.7920,3648
2.7940,432
2.7960,880
2.7980,736
2.8000,320
2.8020,768
2.8040,736
2.8060,560
2.8080,560
2.8100,1248
2.8120,544
2.8140,448
2.8160,592
2.8180,368
2.8200,1488
2.8220,1616
2.8240,528
2.8260,1008
2.8280,1424
2.8300,1280
2.8320,736
2.8340,848
2.8360,512
2.8380,992
2.8400,640
2.8420,1328
2.8440,512
2.8460,704
2.8480,480
2.8500,416
2.8520,480
2.8540,224
2.8560,192
2.8580,576
2.8600,352
2.8620,272
2.8640,832
2.8660,432
2.8680,672
2.8700,1104
2.8720,368
2.8740,192
2.8760,448
2.8780,1552
2.8800,1216
2.8820,896
2.8840,800
2.8860,736
2.8880,576
2.8900,656
2.8920,624
2.8940,912
2.8960,3008
2.8980,2880
2.9000,784
2.9020,464
2.9040,336
2.9060,528
2.9080,832
2.9100,656
2.9120,544
2.9140,432
2.9160,800
2.9180,720
2.9200,832
2.9220,400
2.9240,288
2.9260,400
2.9280,608
2.9300,992
2.9320,1472
2.9340,240
2.9360,656
2.9380,384
2.9400,704
2.9420,432
2.9440,480
2.9460,640
2.9480,864
2.9500,848
2.9520,784
2.9540,544
2.9560,480
2.9580,848
2.9600,592
2.9620,192
2.9640,592
2.9660,688
2.9680,720
2.9700,672
2.9720,560
2.9740,640
2.9760,352
2.9780,704
2.9800,832
2.9820,592
2.9840,592
2.9860,896
2.9880,432
2.9900,256
2.9920,720
2.9940,1040
2.9960,416
2.9980,976
3.0000,672
3.0020,512
3.0040,816
3.0060,272
3.0080,1248
3.0100,400
3.0120,960
3.0140,640
3.0160,1200
3.0180,2384
3.0200,640
3.0220,864
3.0240,640
3.0260,400
3.0280,448
3.0300,4225
3.0320,4113
3.0340,608
3.0360,800
3.0380,560
3.0400,704
3.0420,336
3.0440,720
3.0460,784
3.0480,192
3.0500,576
3.0520,448
3.0540,848
3.0560,656
3.0580,336
3.0600,464
3.0620,656
3.0640,736
3.0660,400
3.0680,336
3.0700,576
3.0720,448
3.0740,496
3.0760,912
3.0780,656
3.0800,384
3.0820,480
3.0840,528
3.0860,832
3.0880,880
3.0900,416
3.0920,1072
3.0940,400
3.0960,800
3.0980,960
3.1000,1968
3.1020,800
3.1040,992
3.1060,560
3.1080,848
3.1100,512
3.1120,400
3.1140,592
3.1160,544
3.1180,736
3.1200,1376
3.1220,1152
3.1240,704
3.1260,656
3.1280,1456
3.1300,496
3.1320,336
3.1340,1200
3.1360,992
3.1380,816
3.1400,864
3.1420,1504
3.1440,1600
3.1460,576
3.1480,5537
3.1500,5601
3.1520,976
3.1540,1968
3.1560,592
3.1580,768
3.1600,96
3.1620,656
3.1640,512
3.1660,688
3.1680,416
3.1700,608
3.1720,432
3.1740,384
3.1760,1120
3.1780,464
3.1800,672
3.1820,496
3.1840,528
3.1860,512
3.1880,720
3.1900,448
3.1920,704
3.1940,528
3.1960,496
3.1980,608
3.2000,320
3.2020,1072
3.2040,528
3.2060,464
3.2080,544
3.2100,464
3.2120,256
3.2140,704
3.2160,368
3.2180,384
3.2200,592
3.2220,704
3.2240,336
3.2260,656
3.2280,848
3.2300,480
3.2320,480
3.2340,656
3.2360,576
3.2380,640
3.2400,912
3.2420,656
3.2440,2320
3.2460,528
3.2480,1088
3.2500,592
3.2520,368
3.2540,384
3.2560,1424
3.2580,4433
3.2600,720
3.2620,416
3.2640,864
3.2660,768
3.2680,144
3.2700,640
3.2720,560
3.2740,352
3.2760,432
3.2780,320
3.2800,1104
3.2820,1248
3.2840,832
3.2860,560
3.2880,480
3.2900,464
3.2920,304
3.2940,480
3.2960,560
3.2980,400
3.3000,1152
3.3020,1040
3.3040,832
3.3060,720
3.3080,640
3.3100,944
3.3120,288
3.3140,912
3.3160,704
3.3180,848
3.3200,1536
3.3220,336
3.3240,512
3.3260,1424
3.3280,912
3.3300,656
3.3320,1296
3.3340,1072
3.3360,736
3.3380,576
3.3400,464
3.3420,752
3.3440,464
3.3460,544
3.3480,752
3.3500,944
3.3520,1184
3.3540,784
3.3560,656
3.3580,1232
3.3600,6049
3.3620,9474
3.3640,480
3.3660,272
3.3680,544
3.3700,1216
3.3720,960
3.3740,1328
3.3760,1056
3.3780,672
3.3800,1024
3.3820,768
3.3840,656
3.3860,592
3.3880,656
3.3900,1072
3.3920,688
3.3940,1184
3.3960,944
3.3980,464
3.4000,784
3.4020,608
3.4040,720
3.4060,384
3.4080,272
3.4100,704
3.4120,688
3.4140,1760
3.4160,1600
3.4180,1024
3.4200,576
3.4220,864
3.4240,1312
3.4260,544
3.4280,1488
3.4300,416
3.4320,784
3.4340,800
3.4360,224
3.4380,768
3.4400,288
3.4420,736
3.4440,400
3.4460,592
3.4480,720
3.4500,672
3.4520,1120
3.4540,1376
3.4560,480
3.4580,1808
3.4600,352
3.4620,576
3.4640,448
3.4660,384
3.4680,4993
3.4700,1904
3.4720,512
3.4740,1056
3.4760,448
3.4780,1632
3.4800,608
3.4820,912
3.4840,928
3.4860,576
3.4880,592
3.4900,656
3.4920,640
3.4940,512
3.4960,1040
3.4980,528
3.5000,880
3.5020,816
3.5040,304
3.5060,464
3.5080,304
3.5100,688
3.5120,416
3.5140,1120
3.5160,464
3.5180,144
3.5200,480
3.5220,912
3.5240,592
3.5260,1168
3.5280,704
3.5300,480
3.5320,304
3.5340,416
3.5360,576
3.5380,1456
3.5400,1216
3.5420,576
3.5440,688
3.5460,224
3.5480,928
3.5500,736
3.5520,544
3.5540,976
3.5560,672
3.5580,864
3.5600,768
3.5620,448
3.5640,384
3.5660,432
3.5680,320
3.5700,736
3.5720,432
3.5740,832
3.5760,528
3.5780,1344
3.5800,288
3.5820,432
3.5840,576
3.5860,912
3.5880,256
3.5900,1360
3.5920,928
3.5940,384
3.5960,352
3.5980,1328
3.6000,288
3.6020,304
3.6040,1152
3.6060,640
3.6080,2960
3.6100,560
3.6120,672
3.6140,960
3.6160,784
3.6180,720
3.6200,448
3.6220,608
3.6240,304
3.6260,3456
3.6280,5937
3.6300,3088
3.6320,352
3.6340,336
3.6360,816
3.6380,928
3.6400,864
3.6420,288
3.6440,464
3.6460,608
3.6480,800
3.6500,624
3.6520,448
3.6540,576
3.6560,256
3.6580,384
3.6600,800
3.6620,448
3.6640,960
3.6660,640
3.6680,864
3.6700,640
3.6720,1584
3.6740,736
3.6760,512
3.6780,592
3.6800,720
3.6820,608
3.6840,672
3.6860,1552
3.6880,832
3.6900,1440
3.6920,1360
3.6940,576
3.6960,784
3.6980,448
3.7000,736
3.7020,672
3.7040,384
3.7060,1312
3.7080,336
3.7100,992
3.7120,640
3.7140,384
3.7160,672
3.7180,720
3.7200,512
3.7220,784
3.7240,336
3.7260,288
3.7280,384
3.7300,864
3.7320,288
3.7340,2352
3.7360,592
3.7380,672
3.7400,448
3.7420,320
3.7440,96
3.7460,512
3.7480,160
3.7500,656
3.7520,688
3.7540,576
3.7560,320
3.7580,800
3.7600,528
3.7620,432
3.7640,512
3.7660,512
3.7680,336
3.7700,4353
3.7720,8514
3.7740,480
3.7760,256
3.7780,976
3.7800,688
3.7820,1632
3.7840,624
3.7860,656
3.7880,464
3.7900,656
3.7920,480
3.7940,816
3.7960,352
3.7980,400
3.8000,480
3.8020,384
3.8040,576
3.8060,576
3.8080,400
3.8100,272
3.8120,608
3.8140,1200
3.8160,304
3.8180,608
3.8200,480
3.8220,784
3.8240,320
3.8260,640
3.8280,1104
3.8300,656
3.8320,912
3.8340,480
3.8360,1152
3.8380,640
3.8400,432
3.8420,752
3.8440,256
3.8460,1312
3.8480,480
3.8500,384
3.8520,928
3.8540,688
3.8560,896
3.8580,608
3.8600,448
3.8620,464
3.8640,992
3.8660,352
3.8680,1200
3.8700,896
3.8720,224
3.8740,288
3.8760,288
3.8780,800
3.8800,416
3.8820,7937
3.8840,1712
3.8860,384
3.8880,656
3.8900,432
3.8920,880
3.8940,1280
3.8960,1072
3.8980,400
3.9000,2240
3.9020,800
3.9040,800
3.9060,528
3.9080,1856
3.9100,1360
3.9120,1248
3.9140,592
3.9160,640
3.9180,928
3.9200,960
3.9220,464
3.9240,1184
3.9260,720
3.9280,560
3.9300,400
3.9320,512
3.9340,352
3.9360,1184
3.9380,1024
3.9400,1472
3.9420,1376
3.9440,352
3.9460,512
3.9480,128
3.9500,672
3.9520,960
3.9540,384
3.9560,896
3.9580,640
3.9600,832
3.9620,2112
3.9640,1248
3.9660,528
3.9680,544
3.9700,416
3.9720,208
3.9740,848
3.9760,960
3.9780,160
3.9800,848
3.9820,928
3.9840,576
3.9860,944
3.9880,400
3.9900,576
3.9920,912
3.9940,480
3.9960,480
3.9980,304
4.0000,912
4.0020,864
4.0040,416
4.0060,1872
4.0080,544
4.0100,848
4.0120,384
4.0140,3408
4.0160,3984
4.0180,512
4.0200,640
4.0220,912
4.0240,768
4.0260,672
4.0280,2272
4.0300,1088
4.0320,896
4.0340,512
4.0360,1488
4.0380,576
4.0400,656
4.0420,288
4.0440,448
4.0460,416
4.0480,1120
4.0500,1888
4.0520,1072
4.0540,736
4.0560,944
4.0580,512
4.0600,272
4.0620,384
4.0640,528
4.0660,528
4.0680,464
4.0700,560
4.0720,592
4.0740,704
4.0760,560
4.0780,672
4.0800,544
4.0820,480
4.0840,1216
4.0860,928
4.0880,528
4.0900,464
4.0920,1072
4.0940,1152
4.0960,432
4.0980,320
4.1000,848
4.1020,688
4.1040,816
4.1060,432
4.1080,784
4.1100,800
4.1120,544
4.1140,400
4.1160,944
4.1180,448
4.1200,1776
4.1220,368
4.1240,464
4.1260,432
4.1280,704
4.1300,576
4.1320,512
4.1340,512
4.1360,192
4.1380,544
4.1400,288
4.1420,2992
4.1440,2496
4.1460,1312
4.1480,912
4.1500,416
4.1520,752
4.1540,432
4.1560,512
4.1580,400
4.1600,608
4.1620,1024
4.1640,768
4.1660,352
4.1680,720
4.1700,304
4.1720,1184
4.1740,2832
4.1760,1536
4.1780,352
4.1800,784
4.1820,416
4.1840,864
4.1860,544
4.1880,784
4.1900,592
4.1920,608
4.1940,992
4.1960,784
4.1980,1248
4.2000,960
4.2020,448
4.2040,224
4.2060,864
4.2080,560
4.2100,672
4.2120,1328
4.2140,1216
4.2160,528
4.2180,992
4.2200,672
4.2220,640
4.2240,448
4.2260,432
4.2280,960
4.2300,656
4.2320,800
4.2340,448
4.2360,1392
4.2380,768
4.2400,560
4.2420,528
4.2440,384
4.2460,416
4.2480,1184
4.2500,640
4.2520,976
4.2540,464
4.2560,816
4.2580,480
4.2600,336
4.2620,896
4.2640,640
4.2660,672
4.2680,704
4.2700,864
4.2720,960
4.2740,352
4.2760,912
4.2780,688
4.2800,304
4.2820,2848
4.2840,6241
4.2860,560
4.2880,560
4.2900,544
4.2920,816
4.2940,1552
4.2960,640
4.2980,992
4.3000,528
4.3020,288
4.3040,688
4.3060,480
4.3080,944
4.3100,576
4.3120,928
4.3140,432
4.3160,592
4.3180,432
4.3200,384
4.3220,640
4.3240,272
4.3260,384
4.3280,176
4.3300,416
4.3320,288
4.3340,528
4.3360,592
4.3380,432
4.3400,736
4.3420,768
4.3440,1168
4.3460,448
4.3480,496
4.3500,2096
4.3520,960
4.3540,592
4.3560,640
4.3580,1632
4.3600,432
4.3620,464
4.3640,1872
4.3660,592
4.3680,416
4.3700,528
4.3720,832
4.3740,512
4.3760,848
4.3780,944
4.3800,832
4.3820,160
4.3840,528
4.3860,2768
4.3880,6961
4.3900,1088
4.3920,6337
4.3940,2800
4.3960,896
4.3980,512
4.4000,512
4.4020,560
4.4040,400
4.4060,832
4.4080,672
4.4100,192
4.4120,624
4.4140,672
4.4160,880
4.4180,736
4.4200,432
4.4220,272
4.4240,688
4.4260,432
4.4280,480
4.4300,592
4.4320,816
4.4340,912
4.4360,800
4.4380,464
4.4400,384
4.4420,432
4.4440,432
4.4460,736
4.4480,864
4.4500,1232
4.4520,432
4.4540,784
4.4560,656
4.4580,880
4.4600,432
4.4620,736
4.4640,384
4.4660,672
4.4680,432
4.4700,512
4.4720,928
4.4740,592
4.4760,416
4.4780,288
4.4800,528
4.4820,352
4.4840,736
4.4860,464
4.4880,288
4.4900,496
4.4920,1328
4.4940,320
4.4960,864
4.4980,704
4.5000,352
4.5020,560
4.5040,544
4.5060,480
4.5080,736
4.5100,672
4.5120,464
4.5140,608
4.5160,400
4.5180,576
4.5200,336
4.5220,592
4.5240,1488
4.5260,480
4.5280,1104
4.5300,816
4.5320,432
4.5340,576
4.5360,512
4.5380,976
4.5400,576
4.5420,1504
4.5440,992
4.5460,512
4.5480,208
4.5500,528
4.5520,336
4.5540,416
4.5560,704
4.5580,176
4.5600,944
4.5620,512
4.5640,7025
4.5660,480
4.5680,256
4.5700,768
4.5720,512
4.5740,192
4.5760,512
4.5780,832
4.5800,560
4.5820,608
4.5840,640
4.5860,784
4.5880,480
4.5900,848
4.5920,672
4.5940,304
4.5960,496
4.5980,464
4.6000,512
4.6020,912
4.6040,336
4.6060,432
4.6080,1280
4.6100,480
4.6120,512
4.6140,464
4.6160,640
4.6180,320
4.6200,1824
4.6220,672
4.6240,592
4.6260,576
4.6280,1296
4.6300,640
4.6320,384
4.6340,672
4.6360,320
4.6380,656
4.6400,160
4.6420,800
4.6440,304
4.6460,1344
4.6480,432
4.6500,496
4.6520,496
4.6540,800
4.6560,384
4.6580,592
4.6600,176
4.6620,240
4.6640,640
4.6660,224
4.6680,272
4.6700,576
4.6720,704
4.6740,848
4.6760,576
4.6780,816
4.6800,1152
4.6820,4833
4.6840,7185
4.6860,1264
4.6880,656
4.6900,96
4.6920,1040
4.6940,480
4.6960,704
4.6980,512
4.7000,480
4.7020,608
4.7040,688
4.7060,416
4.7080,1344
4.7100,704
4.7120,368
4.7140,336
4.7160,800
4.7180,2992
4.7200,1408
4.7220,560
4.7240,256
4.7260,672
4.7280,784
4.7300,704
4.7320,560
4.7340,224
4.7360,288
4.7380,784
4.7400,496
4.7420,336
4.7440,720
4.7460,560
4.7480,448
4.7500,736
4.7520,928
4.7540,544
4.7560,640
4.7580,416
4.7600,848
4.7620,672
4.7640,560
4.7660,576
4.7680,512
4.7700,4016
4.7720,704
4.7740,704
4.7760,352
4.7780,576
4.7800,2608
4.7820,480
4.7840,480
4.7860,1168
4.7880,800
4.7900,560
4.7920,592
4.7940,560
4.7960,496
4.7980,384
4.8000,496
4.8020,1440
4.8040,528
4.8060,576
4.8080,656
4.8100,1632
4.8120,1168
4.8140,656
4.8160,768
4.8180,672
4.8200,992
4.8220,560
4.8240,608
4.8260,800
4.8280,944
4.8300,576
4.8320,560
4.8340,656
4.8360,704
4.8380,736
4.8400,816
4.8420,1344
4.8440,2048
4.8460,496
4.8480,1104
4.8500,624
4.8520,320
4.8540,992
4.8560,464
4.8580,944
4.8600,416
4.8620,912
4.8640,576
4.8660,704
4.8680,848
4.8700,224
4.8720,224
4.8740,576
4.8760,1168
4.8780,304
4.8800,384
4.8820,1072
4.8840,464
4.8860,672
4.8880,592
4.8900,256
4.8920,640
4.8940,528
4.8960,656
4.8980,672
4.9000,912
4.9020,544
4.9040,592
4.9060,272
4.9080,464
4.9100,768
4.9120,1568
4.9140,1200
4.9160,528
4.9180,640
4.9200,608
4.9220,416
4.9240,400
4.9260,1360
4.9280,816
4.9300,720
4.9320,1696
4.9340,656
4.9360,944
4.9380,352
4.9400,704
4.9420,592
4.9440,592
4.9460,496
4.9480,496
4.9500,448
4.9520,672
4.9540,848
4.9560,1072
4.9580,432
4.9600,800
4.9620,720
4.9640,720
4.9660,560
4.9680,864
4.9700,4000
4.9720,3360
4.9740,816
4.9760,736
4.9780,1680
4.9800,1440
4.9820,544
4.9840,336
4.9860,896
4.9880,592
4.9900,832
4.9920,1712
4.9940,944
4.9960,480
4.9980,528
5.0000,224
5.0020,1088
5.0040,176
5.0060,544
5.0080,512
5.0100,1552
5.0120,240
5.0140,1040
5.0160,848
5.0180,976
5.0200,432
5.0220,896
5.0240,688
5.0260,736
5.0280,2848
5.0300,592
5.0320,896
5.0340,848
5.0360,528
5.0380,592
5.0400,432
5.0420,272
5.0440,752
5.0460,784
5.0480,432
5.0500,528
5.0520,432
5.0540,496
5.0560,592
5.0580,320
5.0600,400
5.0620,944
5.0640,448
5.0660,400
5.0680,272
5.0700,464
5.0720,608
5.0740,544
5.0760,560
5.0780,384
5.0800,256
5.0820,2752
5.0840,3440
5.0860,1424
5.0880,160
5.0900,352
5.0920,352
5.0940,1216
5.0960,1152
5.0980,752
5.1000,1168
5.1020,976
5.1040,736
5.1060,448
5.1080,1104
5.1100,1376
5.1120,400
5.1140,576
5.1160,464
5.1180,736
5.1200,1344
5.1220,368
5.1240,256
5.1260,448
5.1280,320
5.1300,656
5.1320,416
5.1340,272
5.1360,512
5.1380,336
5.1400,896
5.1420,1376
5.1440,560
5.1460,176
5.1480,672
5.1500,656
5.1520,304
5.1540,448
5.1560,512
5.1580,528
5.1600,1472
5.1620,1840
5.1640,720
5.1660,912
5.1680,944
5.1700,640
5.1720,464
5.1740,1536
5.1760,672
5.1780,688
5.1800,512
5.1820,1360
5.1840,976
5.1860,1344
5.1880,288
5.1900,368
5.1920,1552
5.1940,752
5.1960,608
5.1980,192
5.2000,512
5.2020,720
5.2040,8402
5.2060,5377
5.2080,560
5.2100,624
5.2120,944
5.2140,720
5.2160,800
5.2180,688
5.2200,1024
5.2220,1280
5.2240,704
5.2260,784
5.2280,576
5.2300,592
5.2320,512
5.2340,512
5.2360,336
5.2380,880
5.2400,944
5.2420,768
5.2440,1168
5.2460,1616
5.2480,160
5.2500,832
5.2520,656
5.2540,1120
5.2560,272
5.2580,1664
5.2600,256
5.2620,464
5.2640,448
5.2660,448
5.2680,576
5.2700,800
5.2720,720
5.2740,768
5.2760,1008
5.2780,320
5.2800,544
5.2820,528
5.2840,464
5.2860,1600
5.2880,1088
5.2900,320
5.2920,704
5.2940,688
5.2960,1520
5.2980,288
5.3000,480
5.3020,432
5.3040,240
5.3060,224
5.3080,448
5.3100,560
5.3120,1232
5.3140,848
5.3160,1024
5.3180,464
5.3200,480
5.3220,608
5.3240,576
5.3260,352
5.3280,976
5.3300,304
5.3320,256
5.3340,2320
5.3360,1152
5.3380,1024
5.3400,560
5.3420,720
5.3440,352
5.3460,848
5.3480,784
5.3500,448
5.3520,1616
5.3540,608
5.3560,496
5.3580,512
5.3600,768
5.3620,544
5.3640,336
5.3660,192
5.3680,592
5.3700,976
5.3720,464
5.3740,976
5.3760,608
5.3780,448
5.3800,800
5.3820,592
5.3840,240
5.3860,256
5.3880,464
5.3900,480
5.3920,176
5.3940,784
5.3960,400
5.3980,912
5.4000,352
5.4020,480
5.4040,976
5.4060,592
5.4080,528
5.4100,912
5.4120,416
5.4140,960
5.4160,864
5.4180,640
5.4200,448
5.4220,592
5.4240,352
5.4260,368
5.4280,288
5.4300,400
5.4320,1152
5.4340,432
5.4360,512
5.4380,944
5.4400,400
5.4420,320
5.4440,608
5.4460,3120
5.4480,7121
5.4500,560
5.4520,304
5.4540,848
5.4560,304
5.4580,1088
5.4600,864
5.4620,272
5.4640,944
5.4660,400
5.4680,608
5.4700,448
5.4720,416
5.4740,1040
5.4760,528
5.4780,64
5.4800,784
5.4820,352
5.4840,736
5.4860,1312
5.4880,336
5.4900,336
5.4920,128
5.4940,928
5.4960,784
5.4980,256
5.5000,544
5.5020,464
5.5040,704
5.5060,560
5.5080,1424
5.5100,800
5.5120,384
5.5140,1312
5.5160,512
5.5180,544
5.5200,848
5.5220,416
5.5240,1472
5.5260,528
5.5280,480
5.5300,384
5.5320,560
5.5340,512
5.5360,672
5.5380,224
5.5400,336
5.5420,592
5.5440,688
5.5460,304
5.5480,448
5.5500,576
5.5520,560
5.5540,400
5.5560,448
5.5580,336
5.5600,448
5.5620,592
5.5640,432
5.5660,960
5.5680,704
5.5700,432
5.5720,1056
5.5740,1792
5.5760,288
5.5780,816
5.5800,960
5.5820,448
5.5840,896
5.5860,240
5.5880,832
5.5900,416
5.5920,4929
5.5940,2784
5.5960,1392
5.5980,448
5.6000,480
5.6020,576
5.6040,688
5.6060,272
5.6080,512
5.6100,816
5.6120,576
5.6140,336
5.6160,400
5.6180,1616
5.6200,688
5.6220,800
5.6240,416
5.6260,736
5.6280,384
5.6300,272
5.6320,400
5.6340,800
5.6360,432
5.6380,832
5.6400,2992
5.6420,320
5.6440,544
5.6460,384
5.6480,848
5.6500,1504
5.6520,1152
5.6540,592
5.6560,832
5.6580,736
5.6600,1408
5.6620,1472
5.6640,512
5.6660,432
5.6680,432
5.6700,848
5.6720,144
5.6740,2448
5.6760,528
5.6780,336
5.6800,224
5.6820,784
5.6840,464
5.6860,1280
5.6880,352
5.6900,352
5.6920,576
5.6940,768
5.6960,1056
5.6980,400
5.7000,480
5.7020,464
5.7040,768
5.7060,560
5.7080,256
5.7100,592
5.7120,1712
5.7140,224
5.7160,1552
5.7180,320
5.7200,720
5.7220,560
5.7240,1712
5.7260,384
5.7280,576
5.7300,1056
5.7320,1856
5.7340,448
5.7360,656
5.7380,304
5.7400,592
5.7420,2144
5.7440,320
5.7460,688
5.7480,928
5.7500,288
5.7520,400
5.7540,784
5.7560,1296
5.7580,304
5.7600,448
5.7620,272
5.7640,192
5.7660,1744
5.7680,928
5.7700,544
5.7720,496
5.7740,560
5.7760,464
5.7780,416
5.7800,560
5.7820,544
5.7840,1200
5.7860,704
5.7880,224
5.7900,496
5.7920,416
5.7940,784
5.7960,320
5.7980,592
5.8000,288
5.8020,448
5.8040,656
5.8060,224
5.8080,528
5.8100,400
5.8120,1632
5.8140,592
5.8160,576
5.8180,464
5.8200,240
5.8220,832
5.8240,432
5.8260,400
5.8280,688
5.8300,480
5.8320,640
5.8340,112
5.8360,976
5.8380,576
5.8400,752
5.8420,560
5.8440,224
5.8460,240
5.8480,736
5.8500,432
5.8520,480
5.8540,352
5.8560,560
5.8580,656
5.8600,928
5.8620,1456
5.8640,80
5.8660,208
5.8680,464
5.8700,592
5.8720,736
5.8740,832
5.8760,592
5.8780,816
5.8800,448
5.8820,464
5.8840,272
5.8860,304
5.8880,480
5.8900,352
5.8920,352
5.8940,640
5.8960,464
5.8980,896
5.9000,688
5.9020,192
5.9040,640
5.9060,336
5.9080,672
5.9100,256
5.9120,448
5.9140,656
5.9160,640
5.9180,416
5.9200,992
5.9220,304
5.9240,256
5.9260,240
5.9280,544
5.9300,576
5.9320,416
5.9340,416
5.9360,272
5.9380,96
5.9400,80
5.9420,288
5.9440,848
5.9460,560
5.9480,688
5.9500,416
5.9520,192
5.9540,288
5.9560,704
5.9580,256
5.9600,320
5.9620,480
5.9640,208
5.9660,672
5.9680,672
5.9700,400
5.9720,560
5.9740,752
5.9760,800
5.9780,1056
5.9800,496
5.9820,432
5.9840,560
5.9860,4529
5.9880,7425
5.9900,1056
5.9920,960
5.9940,560
5.9960,448
5.9980,688
6.0000,480
6.0020,464
6.0040,512
6.0060,544
6.0080,1984
6.0100,1168
6.0120,656
6.0140,976
6.0160,544
6.0180,544
6.0200,256
6.0220,272
6.0240,288
6.0260,3680
6.0280,560
6.0300,848
6.0320,704
6.0340,736
6.0360,704
6.0380,480
6.0400,400
6.0420,544
6.0440,672
6.0460,688
6.0480,768
6.0500,592
6.0520,496
6.0540,592
6.0560,1024
6.0580,672
6.0600,432
6.0620,736
6.0640,496
6.0660,656
6.0680,912
6.0700,768
6.0720,496
6.0740,576
6.0760,448
6.0780,576
6.0800,720
6.0820,304
6.0840,576
6.0860,496
6.0880,480
6.0900,304
6.0920,400
6.0940,1168
6.0960,304
6.0980,912
6.1000,576
6.1020,416
6.1040,480
6.1060,560
6.1080,464
6.1100,688
6.1120,384
6.1140,384
6.1160,672
6.1180,464
6.1200,432
6.1220,848
6.1240,256
6.1260,784
6.1280,416
6.1300,48
6.1320,448
6.1340,544
6.1360,464
6.1380,720
6.1400,304
6.1420,704
6.1440,3136
6.1460,3600
6.1480,1264
6.1500,608
6.1520,480
6.1540,784
6.1560,656
6.1580,512
6.1600,608
6.1620,608
6.1640,480
6.1660,416
6.1680,1184
6.1700,256
6.1720,592
6.1740,288
6.1760,304
6.1780,432
6.1800,448
6.1820,208
6.1840,656
6.1860,896
6.1880,304
6.1900,1168
6.1920,1296
6.1940,928
6.1960,1040
6.1980,560
6.2000,560
6.2020,544
6.2040,1040
6.2060,480
6.2080,720
6.2100,592
6.2120,512
6.2140,320
6.2160,944
6.2180,800
6.2200,464
6.2220,608
6.2240,1296
6.2260,608
6.2280,688
6.2300,688
6.2320,672
6.2340,656
6.2360,608
6.2380,576
6.2400,960
6.2420,848
6.2440,656
6.2460,592
6.2480,528
6.2500,5921
6.2520,3344
6.2540,768
6.2560,448
6.2580,1600
6.2600,688
6.2620,416
6.2640,480
6.2660,1568
6.2680,752
6.2700,320
6.2720,1056
6.2740,800
6.2760,960
6.2780,1568
6.2800,512
6.2820,608
6.2840,848
6.2860,1296
6.2880,784
6.2900,912
6.2920,752
6.2940,384
6.2960,1200
6.2980,352
6.3000,1216
6.3020,304
6.3040,288
6.3060,848
6.3080,1456
6.3100,576
6.3120,816
6.3140,848
6.3160,896
6.3180,592
6.3200,832
6.3220,848
6.3240,800
6.3260,656
6.3280,640
6.3300,720
6.3320,432
6.3340,896
6.3360,448
6.3380,768
6.3400,304
6.3420,1728
6.3440,4689
6.3460,8706
6.3480,592
6.3500,800
6.3520,1104
6.3540,656
6.3560,1024
6.3580,320
6.3600,1968
6.3620,1440
6.3640,608
6.3660,448
6.3680,672
6.3700,1024
6.3720,640
6.3740,720
6.3760,1040
6.3780,432
6.3800,448
6.3820,576
6.3840,672
6.3860,576
6.3880,720
6.3900,992
6.3920,1632
6.3940,688
6.3960,1088
6.3980,608
6.4000,992
6.4020,784
6.4040,1744
6.4060,336
6.4080,672
6.4100,2400
6.4120,704
6.4140,720
6.4160,336
6.4180,304
6.4200,1184
6.4220,672
6.4240,512
6.4260,784
6.4280,544
6.4300,720
6.4320,720
6.4340,976
6.4360,1056
6.4380,1168
6.4400,1088
6.4420,1328
6.4440,672
6.4460,1008
6.4480,960
6.4500,704
6.4520,960
6.4540,3040
6.4560,3808
6.4580,688
6.4600,1216
6.4620,608
6.4640,432
6.4660,560
6.4680,1024
6.4700,528
6.4720,1840
6.4740,432
6.4760,656
6.4780,720
6.4800,720
6.4820,1168
6.4840,736
6.4860,1536
6.4880,1216
6.4900,688
6.4920,720
6.4940,720
6.4960,832
6.4980,704
6.5000,592
6.5020,1648
6.5040,544
6.5060,736
6.5080,656
6.5100,592
6.5120,160
6.5140,832
6.5160,672
6.5180,592
6.5200,912
6.5220,2128
6.5240,672
6.5260,544
6.5280,3296
6.5300,6433
6.5320,7169
6.5340,832
6.5360,832
6.5380,592
6.5400,608
6.5420,1888
6.5440,2560
6.5460,2864
6.5480,3552
6.5500,976
6.5520,1184
6.5540,1568
6.5560,976
6.5580,560
6.5600,2096
6.5620,592
6.5640,480
6.5660,112
6.5680,1104
6.5700,784
6.5720,2080
6.5740,1168
6.5760,3920
6.5780,1344
6.5800,672
6.5820,736
6.5840,8354
6.5860,4225
6.5880,544
6.5900,1600
6.5920,3984
6.5940,1888
6.5960,1168
6.5980,464
6.6000,1456
6.6020,672
6.6040,4321
6.6060,5009
6.6080,768
6.6100,1856
6.6120,576
6.6140,816
6.6160,2864
6.6180,1840
6.6200,4961
6.6220,2976
6.6240,1376
6.6260,1136
6.6280,464
6.6300,800
6.6320,736
6.6340,3120
6.6360,1296
6.6380,1488
6.6400,768
6.6420,2624
6.6440,1232
6.6460,4561
6.6480,864
6.6500,2080
6.6520,3872
6.6540,2480
6.6560,3552
6.6580,1056
6.6600,832
6.6620,2336
6.6640,720
6.6660,2064
6.6680,5665
6.6700,816
6.6720,736
6.6740,1040
6.6760,416
6.6780,4545
6.6800,4257
6.6820,400
6.6840,640
6.6860,4705
6.6880,3744
6.6900,1888
6.6920,1168
6.6940,1184
6.6960,416
6.6980,5089
6.7000,4609
6.7020,1104
6.7040,720
6.7060,1360
6.7080,960
6.7100,384
6.7120,3120
6.7140,2816
6.7160,3408
6.7180,4961
6.7200,3024
6.7220,2976
6.7240,1328
6.7260,1312
6.7280,1568
6.7300,3904
6.7320,640
6.7340,544
6.7360,1632
6.7380,784
6.7400,1056
6.7420,768
6.7440,2848
6.7460,4369
6.7480,3104
6.7500,7873
6.7520,6609
6.7540,7185
6.7560,832
6.7580,960
6.7600,5009
6.7620,432
6.7640,6833
6.7660,768
6.7680,2080
6.7700,656
6.7720,3280
6.7740,1632
6.7760,1408
6.7780,15987
6.7800,2016
6.7820,11346
6.7840,960
6.7860,1376
6.7880,7121
6.7900,864
6.7920,912
6.7940,3696
6.7960,19428
6.7980,6657
6.8000,1584
6.8020,2400
6.8040,4064
6.8060,1520
6.8080,2336
6.8100,5297
6.8120,15859
6.8140,6465
6.8160,2864
6.8180,768
6.8200,8338
6.8220,3376
6.8240,928
6.8260,1344
6.8280,1456
6.8300,2992
6.8320,6225
6.8340,3072
6.8360,4129
6.8380,1696
6.8400,10242
6.8420,912
6.8440,6657
6.8460,1152
6.8480,10114
6.8500,2896
6.8520,5681
6.8540,6577
6.8560,1728
6.8580,6913
6.8600,4305
6.8620,11138
6.8640,896
6.8660,6817
6.8680,1984
6.8700,4785
6.8720,16163
6.8740,768
6.8760,9314
6.8780,5505
6.8800,15251
6.8820,1984
6.8840,4481
6.8860,18740
6.8880,800
6.8900,3888
6.8920,992
6.8940,11666
6.8960,3120
6.8980,5425
6.9000,5217
6.9020,6785
6.9040,11858
6.9060,1040
6.9080,4689
6.9100,640
6.9120,8594
6.9140,2240
6.9160,32247
6.9180,8466
6.9200,16051
6.9220,8177
6.9240,944
6.9260,18516
6.9280,8354
6.9300,1328
6.9320,22261
6.9340,3008
6.9360,1232
6.9380,784
6.9400,12018
6.9420,1248
6.9440,2704
6.9460,14563
6.9480,1696
6.9500,1072
6.9520,1536
6.9540,9282
6.9560,2176
6.9580,1216
6.9600,6465
6.9620,9602
6.9640,24565
6.9660,15891
6.9680,13091
6.9700,1152
6.9720,1760
6.9740,1424
6.9760,1824
6.9780,1296
6.9800,3648
6.9820,8930
6.9840,1072
6.9860,1664
6.9880,6577
6.9900,9250
6.9920,10818
6.9940,13475
6.9960,2576
6.9980,22693
7.0000,3936
7.0020,18772
7.0040,7585
7.0060,5537
7.0080,8386
7.0100,832
7.0120,19924
7.0140,11986
7.0160,10658
7.0180,21141
7.0200,20324
7.0220,11842
7.0240,1680
7.0260,1888
7.0280,704
7.0300,5505
7.0320,8594
7.0340,1360
7.0360,12579
7.0380,5713
7.0400,1152
7.0420,20565
7.0440,22245
7.0460,10722
7.0480,608
7.0500,24742
7.0520,18164
7.0540,4833
7.0560,5681
7.0580,848
7.0600,1040
7.0620,6193
7.0640,2096
7.0660,6673
7.0680,960
7.0700,6081
7.0720,23125
7.0740,3328
7.0760,15379
7.0780,9650
7.0800,5345
7.0820,592
7.0840,2752
7.0860,2544
7.0880,672
7.0900,544
7.0920,17748
7.0940,17124
7.0960,7313
7.0980,1936
7.1000,28486
7.1020,832
7.1040,6449
7.1060,7249
7.1080,15395
7.1100,2992
7.1120,2368
7.1140,18020
7.1160,8145
7.1180,4032
7.1200,23653
7.1220,4897
7.1240,1088
7.1260,39065
7.1280,6209
7.1300,20517
7.1320,5633
7.1340,16163
7.1360,2336
7.1380,5761
7.1400,13523
7.1420,8338
7.1440,3872
7.1460,4433
7.1480,4865
7.1500,10082
7.1520,13571
7.1540,15411
7.1560,8290
7.1580,640
7.1600,5857
7.1620,1296
7.1640,2736
7.1660,8898
7.1680,3168
7.1700,8882
7.1720,864
7.1740,10706
7.1760,4833
7.1780,944
7.1800,416
7.1820,11650
7.1840,8722
7.1860,8866
7.1880,7601
7.1900,2592
7.1920,2256
7.1940,17780
7.1960,7073
7.1980,11314
7.2000,13955
7.2020,688
7.2040,26374
7.2060,33576
7.2080,11042
7.2100,3552
7.2120,2064
7.2140,4929
7.2160,1360
7.2180,12130
7.2200,14755
7.2220,1552
7.2240,5697
7.2260,9298
7.2280,11090
7.2300,4673
7.2320,24373
7.2340,1200
7.2360,16259
7.2380,28134
7.2400,3792
7.2420,9778
7.2440,1616
7.2460,23989
7.2480,432
7.2500,12627
7.2520,5313
7.2540,7313
7.2560,736
7.2580,19780
7.2600,12162
7.2620,2720
7.2640,36456
7.2660,6049
7.2680,1456
7.2700,14675
7.2720,3232
7.2740,4417
7.2760,25766
7.2780,16644
7.2800,7361
7.2820,5777
7.2840,1248
7.2860,8338
7.2880,22629
7.2900,19380
7.2920,1296
7.2940,26278
7.2960,2784
7.2980,30343
7.3000,45419
7.3020,34904
7.3040,9026
7.3060,9106
7.3080,12307
7.3100,2416
7.3120,15843
7.3140,16996
7.3160,13059
7.3180,12995
7.3200,9522
7.3220,14387
7.3240,1360
7.3260,15299
7.3280,11602
7.3300,2864
7.3320,7089
7.3340,6241
7.3360,2064
7.3380,2272
7.3400,11090
7.3420,15827
7.3440,5169
7.3460,2848
7.3480,9266
7.3500,16115
7.3520,3664
7.3540,6273
7.3560,5185
7.3580,17636
7.3600,20901
7.3620,33352
7.3640,35592
7.3660,35864
7.3680,15139
7.3700,3296
7.3720,4193
7.3740,16371
7.3760,784
7.3780,24373
7.3800,2352
7.3820,11058
7.3840,1200
7.3860,12483
7.3880,11090
7.3900,1504
7.3920,1040
7.3940,20372
7.3960,23173
7.3980,1280
7.4000,1952
7.4020,1968
7.4040,704
7.4060,2048
7.4080,7889
7.4100,6433
7.4120,2448
7.4140,1376
7.4160,816
7.4180,13027
7.4200,11522
7.4220,2208
7.4240,9522
7.4260,784
7.4280,12915
7.4300,9954
7.4320,3120
7.4340,10210
7.4360,16404
7.4380,1584
7.4400,9714
7.4420,14355
7.4440,3104
7.4460,8177
7.4480,5873
7.4500,7393
7.4520,9522
7.4540,2384
7.4560,16516
7.4580,4993
7.4600,24614
7.4620,6465
7.4640,11410
7.4660,7345
7.4680,11650
7.4700,10322
7.4720,9586
7.4740,11906
7.4760,816
7.4780,8258
7.4800,5185
7.4820,512
7.4840,4545
7.4860,912
7.4880,2880
7.4900,5777
7.4920,9138
7.4940,12258
7.4960,30791
7.4980,5537
7.5000,3664
7.5020,11250
7.5040,4273
7.5060,8706
7.5080,28358
7.5100,7249
7.5120,18932
7.5140,6337
7.5160,7313
7.5180,944
7.5200,736
7.5220,3088
7.5240,3712
7.5260,2224
7.5280,12355
7.5300,1040
7.5320,4673
7.5340,720
7.5360,14899
7.5380,6049
7.5400,13827
7.5420,1712
7.5440,1488
7.5460,1568
7.5480,1776
7.5500,11826
7.5520,1056
7.5540,18964
7.5560,2128
7.5580,13971
7.5600,1488
7.5620,4209
7.5640,5073
7.5660,15971
7.5680,7713
7.5700,3296
7.5720,3200
7.5740,6929
7.5760,10450
7.5780,2256
7.5800,9026
7.5820,21125
7.5840,12771
7.5860,11298
7.5880,1104
7.5900,1104
7.5920,6289
7.5940,24565
7.5960,10690
7.5980,8946
7.6000,3712
7.6020,976
7.6040,8578
7.6060,5169
7.6080,2800
7.6100,3648
7.6120,9282
7.6140,7377
7.6160,10082
7.6180,14931
7.6200,23701
7.6220,4385
7.6240,21301
7.6260,9426
7.6280,4353
7.6300,3152
7.6320,5409
7.6340,26022
7.6360,15587
7.6380,2944
7.6400,4545
7.6420,18660
7.6440,2624
7.6460,11858
7.6480,16452
7.6500,3120
7.6520,1184
7.6540,6913
7.6560,7889
7.6580,3712
7.6600,33032
7.6620,25430
7.6640,21205
7.6660,14595
7.6680,816
7.6700,4225
7.6720,608
7.6740,5377
7.6760,17364
7.6780,10722
7.6800,2976
7.6820,4369
7.6840,5457
7.6860,3152
7.6880,3680
7.6900,736
7.6920,15443
7.6940,1248
7.6960,2336
7.6980,6689
7.7000,1200
7.7020,2544
7.7040,1824
7.7060,8546
7.7080,2048
7.7100,19540
7.7120,6577
7.7140,6305
7.7160,1632
7.7180,1872
7.7200,17124
7.7220,31671
7.7240,4433
7.7260,4273
7.7280,2720
7.7300,15571
7.7320,8850
7.7340,1216
7.7360,1104
7.7380,11794
7.7400,16355
7.7420,21141
7.7440,1616
7.7460,560
7.7480,8274
7.7500,1488
7.7520,896
7.7540,18708
7.7560,12515
7.7580,20901
7.7600,5249
7.7620,2320
7.7640,1312
7.7660,11298
7.7680,848
7.7700,1328
7.7720,8770
7.7740,2624
7.7760,2512
7.7780,3136
7.7800,9250
7.7820,2240
7.7840,4016
7.7860,2048
7.7880,3936
7.7900,10210
7.7920,704
7.7940,768
7.7960,1616
7.7980,13779
7.8000,13123
7.8020,3072
7.8040,13651
7.8060,26534
7.8080,4609
7.8100,12018
7.8120,9346
7.8140,15875
7.8160,15507
7.8180,1408
7.8200,18180
7.8220,2688
7.8240,10322
7.8260,992
7.8280,10802
7.8300,17732
7.8320,1424
7.8340,8770
7.8360,14419
7.8380,12803
7.8400,10146
7.8420,3072
7.8440,1456
7.8460,5409
7.8480,2016
7.8500,3632
7.8520,6081
7.8540,1696
7.8560,11346
7.8580,9586
7.8600,5121
7.8620,7809
7.8640,2256
7.8660,944
7.8680,5889
7.8700,5649
7.8720,4945
7.8740,6017
7.8760,4497
7.8780,3616
7.8800,5009
7.8820,7457
7.8840,2976
7.8860,1104
7.8880,1184
7.8900,2016
7.8920,8081
7.8940,10258
7.8960,2288
7.8980,1616
7.9000,9506
7.9020,2080
7.9040,11186
7.9060,9554
7.9080,1248
7.9100,9282
7.9120,4401
7.9140,4353
7.9160,5121
7.9180,1504
7.9200,7473
7.9220,11666
7.9240,1904
7.9260,3408
7.9280,23605
7.9300,20100
7.9320,816
7.9340,2720
7.9360,4225
7.9380,832
7.9400,1232
7.9420,4593
7.9440,1216
7.9460,1504
7.9480,3376
7.9500,1984
7.9520,17252
7.9540,9410
7.9560,11090
7.9580,14195
7.9600,6065
7.9620,11202
7.9640,2192
7.9660,8658
7.9680,7441
7.9700,1280
7.9720,2640
7.9740,2656
7.9760,1328
7.9780,4401
7.9800,1648
7.9820,2320
7.9840,912
7.9860,1696
7.9880,4657
7.9900,4481
7.9920,2080
7.9940,11554
7.9960,384
7.9980,10930
8.0000,5537
8.0020,21461
8.0040,9698
8.0060,20741
8.0080,16676
8.0100,2464
8.0120,1184
8.0140,6225
8.0160,11970
8.0180,3920
8.0200,13267
8.0220,2080
8.0240,704
8.0260,2720
8.0280,16644
8.0300,1216
8.0320,23957
8.0340,6049
8.0360,1632
8.0380,784
8.0400,27990
8.0420,20565
8.0440,3360
8.0460,16772
8.0480,2368
8.0500,27494
8.0520,6561
8.0540,6609
8.0560,8177
8.0580,9138
8.0600,2944
8.0620,912
8.0640,6785
8.0660,4305
8.0680,5537
8.0700,15027
8.0720,21573
8.0740,19220
8.0760,2256
8.0780,768
8.0800,8177
8.0820,3632
8.0840,2384
8.0860,816
8.0880,400
8.0900,1792
8.0920,16067
8.0940,576
8.0960,1008
8.0980,6337
8.1000,7697
8.1020,3856
8.1040,26598
8.1060,3248
8.1080,9618
8.1100,25270
8.1120,6577
8.1140,1680
8.1160,9570
8.1180,848
8.1200,736
8.1220,5729
8.1240,5025
8.1260,3936
8.1280,18228
8.1300,11234
8.1320,9746
8.1340,6433
8.1360,6929
8.1380,6849
8.1400,4689
8.1420,12002
8.1440,5041
8.1460,24886
8.1480,7121
8.1500,23445
8.1520,1376
8.1540,784
8.1560,4353
8.1580,12675
8.1600,720
8.1620,7873
8.1640,14035
8.1660,1584
8.1680,864
8.1700,24277
8.1720,1856
8.1740,1856
8.1760,7473
8.1780,656
8.1800,20436
8.1820,11922
8.1840,4657
8.1860,12563
8.1880,1488
8.1900,1200
8.1920,4641
8.1940,352
8.1960,9874
8.1980,896
8.2000,11154
8.2020,1584
8.2040,6913
8.2060,4929
8.2080,16420
8.2100,1680
8.2120,14691
8.2140,7041
8.2160,18980
8.2180,5185
8.2200,944
8.2220,20356
8.2240,20773
8.2260,21957
8.2280,7825
8.2300,10946
8.2320,688
8.2340,22549
8.2360,1376
8.2380,11810
8.2400,11698
8.2420,1616
8.2440,1440
8.2460,10370
8.2480,4289
8.2500,1120
8.2520,6017
8.2540,2720
8.2560,8450
8.2580,15299
8.2600,11842
8.2620,4545
8.2640,11826
8.2660,7729
8.2680,1712
8.2700,5137
8.2720,20436
8.2740,1504
8.2760,16740
8.2780,11570
8.2800,10898
8.2820,17988
8.2840,3744
8.2860,1408
8.2880,3248
8.2900,3248
8.2920,752
8.2940,6657
8.2960,16676
8.2980,4577
8.3000,1056
8.3020,21557
8.3040,4705
8.3060,14275
8.3080,19204
8.3100,23365
8.3120,640
8.3140,15075
8.3160,14291
8.3180,17956
8.3200,1296
8.3220,1984
8.3240,1328
8.3260,4657
8.3280,1264
8.3300,3232
8.3320,17220
8.3340,1184
8.3360,8482
8.3380,2512
8.3400,480
8.3420,16996
8.3440,7089
8.3460,25622
8.3480,1312
8.3500,11410
8.3520,5377
8.3540,3040
8.3560,15123
8.3580,5345
8.3600,672
8.3620,7889
8.3640,3824
8.3660,16099
8.3680,7057
8.3700,3200
8.3720,9026
8.3740,14371
8.3760,16580
8.3780,26070
8.3800,8001
8.3820,4881
8.3840,8450
8.3860,14563
8.3880,9410
8.3900,2352
8.3920,8386
8.3940,1616
8.3960,10642
8.3980,4177
8.4000,2144
8.4020,28342
8.4040,2784
8.4060,13587
8.4080,2384
8.4100,3776
8.4120,1296
8.4140,4529
8.4160,1024
8.4180,2736
8.4200,512
8.4220,5425
8.4240,3856
8.4260,12066
8.4280,2704
8.4300,768
8.4320,1376
8.4340,9826
8.4360,8674
8.4380,12451
8.4400,13667
8.4420,5009
8.4440,17700
8.4460,2240
8.4480,2976
8.4500,8274
8.4520,2016
8.4540,2064
8.4560,10994
8.4580,736
8.4600,3584
8.4620,3632
8.4640,6049
8.4660,1344
8.4680,384
8.4700,6657
8.4720,3264
8.4740,3264
8.4760,23637
8.4780,6193
8.4800,5601
8.4820,2160
8.4840,2080
8.4860,656
8.4880,18580
8.4900,4048
8.4920,13075
8.4940,5201
8.4960,17044
8.4980,12194
8.5000,5473
8.5020,1536
8.5040,15443
8.5060,4785
8.5080,8033
8.5100,4353
8.5120,9970
8.5140,544
8.5160,3344
8.5180,8354
8.5200,2656
8.5220,9842
8.5240,20885
8.5260,1968
8.5280,448
8.5300,16227
8.5320,1328
8.5340,8978
8.5360,3184
8.5380,8962
8.5400,10578
8.5420,9794
8.5440,2384
8.5460,6449
8.5480,2256
8.5500,464
8.5520,20933
8.5540,2976
8.5560,9634
8.5580,18964
8.5600,11330
8.5620,8674
8.5640,10242
8.5660,18148
8.5680,2976
8.5700,3936
8.5720,4289
8.5740,9314
8.5760,2400
8.5780,8194
8.5800,5185
8.5820,4577
8.5840,21509
8.5860,288
8.5880,5025
8.5900,9266
8.5920,448
8.5940,2912
8.5960,1488
8.5980,8194
8.6000,560
8.6020,9346
8.6040,1424
8.6060,2144
8.6080,5169
8.6100,1472
8.6120,8706
8.6140,3600
8.6160,864
8.6180,2912
8.6200,2112
8.6220,6817
8.6240,7297
8.6260,1920
8.6280,4305
8.6300,6033
8.6320,7665
8.6340,2208
8.6360,1744
8.6380,1056
8.6400,4337
8.6420,5169
8.6440,3472
8.6460,7473
8.6480,3760
8.6500,4577
8.6520,9874
8.6540,8866
8.6560,928
8.6580,17492
8.6600,6049
8.6620,1264
8.6640,14691
8.6660,496
8.6680,8594
8.6700,1296
8.6720,4241
8.6740,1920
8.6760,3376
8.6780,9906
8.6800,8210
8.6820,224
8.6840,1424
8.6860,1200
8.6880,7809
8.6900,19524
8.6920,21797
8.6940,12627
8.6960,960
8.6980,2896
8.7000,432
8.7020,2576
8.7040,2336
8.7060,9778
8.7080,2688
8.7100,19636
8.7120,2048
8.7140,20420
8.7160,320
8.7180,8706
8.7200,5025
8.7220,3296
8.7240,21685
8.7260,12611
8.7280,2352
8.7300,816
8.7320,432
8.7340,4705
8.7360,1152
8.7380,12819
8.7400,6721
8.7420,784
8.7440,6561
8.7460,1216
8.7480,1952
8.7500,9778
8.7520,9138
8.7540,8450
8.7560,9282
8.7580,992
8.7600,6273
8.7620,4945
8.7640,7681
8.7660,3472
8.7680,1344
8.7700,1680
8.7720,14147
8.7740,800
8.7760,12467
8.7780,8434
8.7800,4753
8.7820,1120
8.7840,11682
8.7860,736
8.7880,2976
8.7900,1840
8.7920,2960
8.7940,2256
8.7960,5713
8.7980,1248
8.8000,1216
8.8020,5649
8.8040,4497
8.8060,12963
8.8080,3296
8.8100,9410
8.8120,992
8.8140,1776
8.8160,6273
8.8180,6673
8.8200,1280
8.8220,640
8.8240,1072
8.8260,928
8.8280,304
8.8300,1024
8.8320,2912
8.8340,8866
8.8360,1216
8.8380,7265
8.8400,5009
8.8420,16355
8.8440,6273
8.8460,5633
8.8480,16660
8.8500,14627
8.8520,3104
8.8540,8194
8.8560,704
8.8580,1376
8.8600,11010
8.8620,16900
8.8640,512
8.8660,4945
8.8680,7313
8.8700,11202
8.8720,8866
8.8740,9042
8.8760,608
8.8780,14035
8.8800,25382
8.8820,8738
8.8840,4193
8.8860,6753
8.8880,9618
8.8900,1360
8.8920,11938
8.8940,1312
8.8960,20148
8.8980,6593
8.9000,10242
8.9020,12178
8.9040,2496
8.9060,928
8.9080,2288
8.9100,7729
8.9120,9250
8.9140,992
8.9160,10498
8.9180,1312
8.9200,3248
8.9220,4401
8.9240,2992
8.9260,11458
8.9280,608
8.9300,1232
8.9320,2144
8.9340,1440
8.9360,10178
8.9380,2304
8.9400,1728
8.9420,656
8.9440,2208
8.9460,592
8.9480,6993
8.9500,18020
8.9520,6785
8.9540,4369
8.9560,12258
8.9580,3424
8.9600,12339
8.9620,10114
8.9640,4177
8.9660,5425
8.9680,1296
8.9700,2272
8.9720,3920
8.9740,6081
8.9760,9538
8.9780,12451
8.9800,14595
8.9820,8161
8.9840,1376
8.9860,3744
8.9880,5985
8.9900,2656
8.9920,18276
8.9940,2336
8.9960,9426
8.9980,976
9.0000,3760
9.0020,18564
9.0040,15427
9.0060,1216
9.0080,4177
9.0100,4305
9.0120,2448
9.0140,14371
9.0160,5121
9.0180,7169
9.0200,11874
9.0220,592
9.0240,3424
9.0260,1504
9.0280,7889
9.0300,10482
9.0320,832
9.0340,9410
9.0360,848
9.0380,4305
9.0400,10434
9.0420,9506
9.0440,864
9.0460,8338
9.0480,12034
9.0500,2128
9.0520,9234
9.0540,1472
9.0560,6193
9.0580,1536
9.0600,2448
9.0620,4353
9.0640,6353
9.0660,784
9.0680,7681
9.0700,8177
9.0720,400
9.0740,768
9.0760,1664
9.0780,8322
9.0800,2496
9.0820,848
9.0840,6033
9.0860,12082
9.0880,1104
9.0900,8834
9.0920,992
9.0940,1184
9.0960,5265
9.0980,5313
9.1000,2912
9.1020,11586
9.1040,16355
9.1060,4769
9.1080,8370
9.1100,12899
9.1120,4993
9.1140,8546
9.1160,1616
9.1180,7521
9.1200,5697
9.1220,1344
9.1240,608
9.1260,9762
9.1280,10050
9.1300,5985
9.1320,24085
9.1340,2496
9.1360,37737
9.1380,864
9.1400,1760
9.1420,6721
9.1440,17044
9.1460,592
9.1480,5633
9.1500,31415
9.1520,1504
9.1540,1120
9.1560,576
9.1580,24293
9.1600,816
9.1620,1952
9.1640,960
9.1660,5857
9.1680,6497
9.1700,3760
9.1720,6081
9.1740,7057
9.1760,1904
9.1780,2640
9.1800,4273
9.1820,13475
9.1840,1408
9.1860,12691
9.1880,7169
9.1900,800
9.1920,3024
9.1940,9298
9.1960,608
9.1980,1680
9.2000,8129
9.2020,14339
9.2040,1984
9.2060,10162
9.2080,448
9.2100,11394
9.2120,12771
9.2140,2512
9.2160,4961
9.2180,1088
9.2200,14931
9.2220,592
9.2240,480
9.2260,2784
9.2280,1488
9.2300,20933
9.2320,7953
9.2340,1248
9.2360,9714
9.2380,6849
9.2400,8322
9.2420,4417
9.2440,13443
9.2460,14739
9.2480,768
9.2500,2176
9.2520,14275
9.2540,5089
9.2560,976
9.2580,10162
9.2600,9474
9.2620,1680
9.2640,12723
9.2660,9874
9.2680,752
9.2700,2272
9.2720,1456
9.2740,13251
9.2760,2768
9.2780,1152
9.2800,14067
9.2820,3376
9.2840,608
9.2860,5313
9.2880,7473
9.2900,1152
9.2920,13331
9.2940,1872
9.2960,896
9.2980,3872
9.3000,1024
9.3020,10418
9.3040,10146
9.3060,8001
9.3080,816
9.3100,1120
9.3120,6897
9.3140,1216
9.3160,12835
9.3180,9314
9.3200,8242
9.3220,912
9.3240,10674
9.3260,11330
9.3280,1008
9.3300,2384
9.3320,3104
9.3340,13571
9.3360,22053
9.3380,5665
9.3400,9378
9.3420,880
9.3440,7217
9.3460,3776
9.3480,1616
9.3500,1344
9.3520,2992
9.3540,7105
9.3560,9314
9.3580,12707
9.3600,672
9.3620,4513
9.3640,2912
9.3660,24614
9.3680,3584
9.3700,352
9.3720,1536
9.3740,6865
9.3760,8386
9.3780,8610
9.3800,1552
9.3820,20100
9.3840,480
9.3860,5585
9.3880,4881
9.3900,5841
9.3920,864
9.3940,5281
9.3960,15251
9.3980,672
9.4000,1232
9.4020,752
9.4040,2656
9.4060,2752
9.4080,4193
9.4100,3248
9.4120,8802
9.4140,6785
9.4160,576
9.4180,736
9.4200,944
9.4220,4385
9.4240,4161
9.4260,3584
9.4280,1360
9.4300,4417
9.4320,672
9.4340,592
9.4360,4913
9.4380,1840
9.4400,5313
9.4420,4881
9.4440,688
9.4460,560
9.4480,1776
9.4500,3488
9.4520,640
9.4540,688
9.4560,2736
9.4580,2784
9.4600,3408
9.4620,1664
9.4640,3392
9.4660,3376
9.4680,6817
9.4700,896
9.4720,8177
9.4740,7457
9.4760,2960
9.4780,4689
9.4800,11826
9.4820,9858
9.4840,8818
9.4860,17812
9.4880,17172
9.4900,10786
9.4920,16612
9.4940,6849
9.4960,3856
9.4980,4401
9.5000,5585
9.5020,704
9.5040,3232
9.5060,7601
9.5080,13235
9.5100,7441
9.5120,3792
9.5140,2576
9.5160,1504
9.5180,10898
9.5200,448
9.5220,2304
9.5240,512
9.5260,15827
9.5280,1488
9.5300,7361
9.5320,8161
9.5340,8930
9.5360,8706
9.5380,11090
9.5400,13763
9.5420,9538
9.5440,13331
9.5460,8962
9.5480,832
9.5500,16323
9.5520,11186
9.5540,6689
9.5560,14211
9.5580,4737
9.5600,544
9.5620,6273
9.5640,1184
9.5660,11458
9.5680,4385
9.5700,4881
9.5720,5025
9.5740,8498
9.5760,4129
9.5780,11426
9.5800,1104
9.5820,3872
9.5840,8802
9.5860,1024
9.5880,10258
9.5900,3968
9.5920,384
9.5940,1408
9.5960,3968
9.5980,5441
9.6000,464
9.6020,7057
9.6040,11282
9.6060,336
9.6080,576
9.6100,6865
9.6120,2656
9.6140,2368
9.6160,2768
9.6180,768
9.6200,11554
9.6220,5969
9.6240,5345
9.6260,9554
9.6280,5777
9.6300,5153
9.6320,1856
9.6340,13219
9.6360,14531
9.6380,1168
9.6400,6849
9.6420,1424
9.6440,6273
9.6460,1712
9.6480,5393
9.6500,5681
9.6520,784
9.6540,5185
9.6560,6017
9.6580,7025
9.6600,1888
9.6620,6017
9.6640,496
9.6660,12963
9.6680,8642
9.6700,2816
9.6720,1424
9.6740,1024
9.6760,640
9.6780,6369
9.6800,1328
9.6820,8177
9.6840,9314
9.6860,11602
9.6880,8962
9.6900,12146
9.6920,10898
9.6940,13251
9.6960,4641
9.6980,944
9.7000,1168
9.7020,1664
9.7040,576
9.7060,496
9.7080,528
9.7100,11602
9.7120,5329
9.7140,5569
9.7160,576
9.7180,3088
9.7200,16067
9.7220,7297
9.7240,1504
9.7260,4369
9.7280,8610
9.7300,7729
9.7320,4225
9.7340,15139
9.7360,8786
9.7380,1040
9.7400,1232
9.7420,19076
9.7440,14739
9.7460,8177
9.7480,1056
9.7500,9858
9.7520,17076
9.7540,816
9.7560,1120
9.7580,704
9.7600,20485
9.7620,4273
9.7640,2720
9.7660,9890
9.7680,2048
9.7700,13635
9.7720,704
9.7740,14227
9.7760,880
9.7780,13443
9.7800,592
9.7820,10770
9.7840,15683
9.7860,23717
9.7880,11538
9.7900,9906
9.7920,3808
9.7940,2544
9.7960,5937
9.7980,10802
9.8000,576
9.8020,2144
9.8040,9794
9.8060,11602
9.8080,2048
9.8100,9922
9.8120,12739
9.8140,640
9.8160,1792
9.8180,3152
9.8200,7729
9.8220,7969
9.8240,13171
9.8260,5505
9.8280,20468
9.8300,1312
9.8320,1968
9.8340,26534
9.8360,2720
9.8380,11026
9.8400,2096
9.8420,19860
9.8440,2944
9.8460,16548
9.8480,2048
9.8500,4048
9.8520,1792
9.8540,19732
9.8560,11970
9.8580,6305
9.8600,22693
9.8620,4417
9.8640,2496
9.8660,4545
9.8680,7169
9.8700,5089
9.8720,704
9.8740,640
9.8760,2944
9.8780,848
9.8800,12899
9.8820,1968
9.8840,3888
9.8860,2768
9.8880,6577
9.8900,5809
9.8920,7233
9.8940,11698
9.8960,8786
9.8980,1072
9.9000,1056
9.9020,480
9.9040,4673
9.9060,7729
9.9080,2240
9.9100,9154
9.9120,944
9.9140,1856
9.9160,2112
9.9180,8914
9.9200,1584
9.9220,256
9.9240,4961
9.9260,1072
9.9280,5729
9.9300,2064
9.9320,4769
9.9340,7761
9.9360,480
9.9380,480
9.9400,10050
9.9420,8017
9.9440,992
9.9460,5809
9.9480,528
9.9500,9266
9.9520,13107
9.9540,2784
9.9560,2208
9.9580,3104
9.9600,12178
9.9620,16468
9.9640,7505
9.9660,960
9.9680,2016
9.9700,5073
9.9720,17844
9.9740,21045
9.9760,16740
9.9780,1360
9.9800,12451
9.9820,23173
9.9840,10050
9.9860,1824
9.9880,11970
9.9900,1216
9.9920,7745
9.9940,13475
9.9960,4593
9.9980,2880
10.0000,3584
10.0020,3440
10.0040,4753
10.0060,10594
10.0080,2064
10.0100,2480
10.0120,4032
10.0140,10178
10.0160,14403
10.0180,7057
10.0200,976
10.0220,1552
10.0240,432
10.0260,1408
10.0280,7441
10.0300,11314
10.0320,5249
10.0340,15699
10.0360,544
10.0380,5121
10.0400,5073
10.0420,1376
10.0440,9410
10.0460,976
10.0480,3072
10.0500,256
10.0520,5889
10.0540,1376
10.0560,9634
10.0580,1744
10.0600,7089
10.0620,2272
10.0640,2304
10.0660,4897
10.0680,8177
10.0700,1248
10.0720,10466
10.0740,784
10.0760,27270
10.0780,2784
10.0800,17044
10.0820,7297
10.0840,13299
10.0860,15075
10.0880,7729
10.0900,22965
10.0920,2912
10.0940,5777
10.0960,11778
10.0980,6177
10.1000,1296
10.1020,13379
10.1040,10066
10.1060,11858
10.1080,12291
10.1100,7697
10.1120,13139
10.1140,2016
10.1160,8482
10.1180,1696
10.1200,720
10.1220,528
10.1240,2768
10.1260,3920
10.1280,16564
10.1300,16996
10.1320,576
10.1340,8514
10.1360,14771
10.1380,464
10.1400,2256
10.1420,13123
10.1440,9058
10.1460,4513
10.1480,2640
10.1500,1040
10.1520,15123
10.1540,448
10.1560,8226
10.1580,12018
10.1600,1104
10.1620,7681
10.1640,1760
10.1660,912
10.1680,2320
10.1700,3360
10.1720,2592
10.1740,464
10.1760,16211
10.1780,20933
10.1800,8642
10.1820,3008
10.1840,4401
10.1860,16468
10.1880,9170
10.1900,10882
10.1920,5329
10.1940,672
10.1960,16003
10.1980,976
10.2000,1152
10.2020,5585
10.2040,832
10.2060,704
10.2080,7857
10.2100,1552
10.2120,4193
10.2140,11042
10.2160,688
10.2180,11282
10.2200,3760
10.2220,1760
10.2240,1248
10.2260,12467
10.2280,8161
10.2300,2224
10.2320,5937
10.2340,9826
10.2360,1264
10.2380,960
10.2400,1888
10.2420,4177
10.2440,192
10.2460,5121
10.2480,4000
10.2500,1056
10.2520,10722
10.2540,9058
10.2560,2992
10.2580,7217
10.2600,6417
10.2620,19732
10.2640,1184
10.2660,13507
10.2680,2224
10.2700,7697
10.2720,14611
10.2740,4753
10.2760,12355
10.2780,12210
10.2800,8882
10.2820,960
10.2840,5473
10.2860,2864
10.2880,3136
10.2900,1536
10.2920,5409
10.2940,2384
10.2960,928
10.2980,12883
10.3000,5281
10.3020,736
10.3040,11090
10.3060,928
10.3080,5297
10.3100,1168
10.3120,4145
10.3140,5473
10.3160,3856
10.3180,1840
10.3200,4097
10.3220,592
10.3240,3264
10.3260,1296
10.3280,2096
10.3300,3360
10.3320,3936
10.3340,672
10.3360,8177
10.3380,1232
10.3400,3536
10.3420,1024
10.3440,512
10.3460,832
10.3480,2608
10.3500,720
10.3520,2784
10.3540,2640
10.3560,384
10.3580,5185
10.3600,8402
10.3620,448
10.3640,1168
10.3660,8898
10.3680,832
10.3700,2960
10.3720,2048
10.3740,5777
10.3760,560
10.3780,6353
10.3800,608
10.3820,3008
10.3840,6177
10.3860,3104
10.3880,384
10.3900,6497
10.3920,2464
10.3940,8177
10.3960,9922
10.3980,576
10.4000,1856
10.4020,18628
10.4040,10034
10.4060,1152
10.4080,736
10.4100,1968
10.4120,800
10.4140,320
10.4160,528
10.4180,992
10.4200,2720
10.4220,3888
10.4240,3600
10.4260,2320
10.4280,1408
10.4300,448
10.4320,480
10.4340,816
10.4360,2128
10.4380,3344
10.4400,6497
10.4420,336
10.4440,432
10.4460,592
10.4480,704
10.4500,2480
10.4520,720
10.4540,2720
10.4560,1328
10.4580,512
10.4600,416
10.4620,16452
10.4640,2768
10.4660,1440
10.4680,6833
10.4700,1536
10.4720,2624
10.4740,9858
10.4760,4961
10.4780,1024
10.4800,8482
10.4820,9042
10.4840,464
10.4860,1664
10.4880,5009
10.4900,704
10.4920,1152
10.4940,1088
10.4960,288
10.4980,1104
10.5000,560
10.5020,512
10.5040,6065
10.5060,1808
10.5080,384
10.5100,1280
10.5120,896
10.5140,352
10.5160,720
10.5180,560
10.5200,944
10.5220,240
10.5240,5697
10.5260,6785
10.5280,1632
10.5300,4993
10.5320,1104
10.5340,912
10.5360,1104
10.5380,576
10.5400,320
10.5420,992
10.5440,15283
10.5460,8338
10.5480,480
10.5500,688
10.5520,256
10.5540,400
10.5560,1024
10.5580,1488
10.5600,416
10.5620,640
10.5640,1632
10.5660,2096
10.5680,512
10.5700,752
10.5720,336
10.5740,3248
10.5760,1440
10.5780,1456
10.5800,4769
10.5820,2576
10.5840,192
10.5860,1280
10.5880,3120
10.5900,672
10.5920,1936
10.5940,224
10.5960,1088
10.5980,1840
10.6000,768
10.6020,400
10.6040,432
10.6060,896
10.6080,288
10.6100,560
10.6120,784
10.6140,512
10.6160,224
10.6180,80
10.6200,432
10.6220,432
10.6240,256
10.6260,528
10.6280,1072
10.6300,2176
10.6320,1632
10.6340,256
10.6360,0
10.6380,128
10.6400,2608
10.6420,432
10.6440,1888
10.6460,1184
10.6480,2752
10.6500,4641
10.6520,1808
10.6540,1248
10.6560,224
10.6580,176
10.6600,592
10.6620,1440
10.6640,416
10.6660,464
10.6680,3536
10.6700,7201
10.6720,1008
10.6740,32
10.6760,896
10.6780,2144
10.6800,1440
10.6820,5697
10.6840,2208
10.6860,3808
10.6880,4529
10.6900,368
10.6920,176
10.6940,2048
10.6960,544
10.6980,8065
10.7000,400
10.7020,544
10.7040,336
10.7060,736
10.7080,576
10.7100,352
10.7120,3040
10.7140,496
10.7160,400
10.7180,560
10.7200,608
10.7220,1520
10.7240,2192
10.7260,656
10.7280,480
10.7300,224
10.7320,688
10.7340,1120
10.7360,288
10.7380,1856
10.7400,272
10.7420,896
10.7440,608
10.7460,384
10.7480,2832
10.7500,784
10.7520,1248
10.7540,992
10.7560,3808
10.7580,688
10.7600,1520
10.7620,192
10.7640,1952
10.7660,1728
10.7680,480
10.7700,352
10.7720,3392
10.7740,1888
10.7760,2432
10.7780,400
10.7800,256
10.7820,272
10.7840,624
10.7860,768
10.7880,1248
10.7900,0
10.7920,1392
10.7940,608
10.7960,432
10.7980,608
10.8000,256
10.8020,560
10.8040,800
10.8060,208
10.8080,16
10.8100,1488
10.8120,160
10.8140,560
10.8160,560
10.8180,1232
10.8200,464
10.8220,432
10.8240,1392
10.8260,928
10.8280,256
10.8300,784
10.8320,2528
10.8340,336
10.8360,512
10.8380,944
10.8400,416
10.8420,448
10.8440,96
10.8460,272
10.8480,80
10.8500,576
10.8520,576
10.8540,544
10.8560,128
10.8580,1024
10.8600,848
10.8620,1456
10.8640,528
10.8660,928
10.8680,2256
10.8700,384
10.8720,352
10.8740,1088
10.8760,496
10.8780,5041
10.8800,7313
10.8820,1152
10.8840,896
10.8860,928
10.8880,432
10.8900,400
10.8920,1184
10.8940,1248
10.8960,320
10.8980,1936
10.9000,320
10.9020,176
10.9040,3888
10.9060,2240
10.9080,912
10.9100,864
10.9120,592
10.9140,1120
10.9160,448
10.9180,2144
10.9200,432
10.9220,864
10.9240,304
10.9260,976
10.9280,560
10.9300,336
10.9320,1552
10.9340,208
10.9360,784
10.9380,1808
10.9400,864
10.9420,1344
10.9440,352
10.9460,1040
10.9480,1056
10.9500,3504
10.9520,496
10.9540,1024
10.9560,384
10.9580,288
10.9600,2512
10.9620,400
10.9640,368
10.9660,224
10.9680,656
10.9700,352
10.9720,416
10.9740,160
10.9760,320
10.9780,1280
10.9800,224
10.9820,432
10.9840,688
10.9860,1664
10.9880,400
10.9900,592
10.9920,1408
10.9940,896
10.9960,6849
10.9980,8866
11.0000,1168
11.0020,960
11.0040,176
11.0060,704
11.0080,1440
11.0100,0
11.0120,320
11.0140,832
11.0160,8210
11.0180,416
11.0200,208
11.0220,3520
11.0240,608
11.0260,256
11.0280,640
11.0300,720
11.0320,464
11.0340,512
11.0360,192
11.0380,752
11.0400,352
11.0420,2992
11.0440,592
11.0460,416
11.0480,304
11.0500,1600
11.0520,864
11.0540,272
11.0560,272
11.0580,3760
11.0600,448
11.0620,768
11.0640,816
11.0660,1584
11.0680,736
11.0700,848
11.0720,288
11.0740,976
11.0760,688
11.0780,256
11.0800,576
11.0820,368
11.0840,256
11.0860,272
11.0880,1632
11.0900,1424
11.0920,2832
11.0940,816
11.0960,640
11.0980,256
11.1000,336
11.1020,688
11.1040,464
11.1060,2016
11.1080,64
11.1100,320
11.1120,304
11.1140,13395
11.1160,3984
11.1180,400
11.1200,464
11.1220,576
11.1240,400
11.1260,3424
11.1280,320
11.1300,7121
11.1320,4000
11.1340,3632
11.1360,416
11.1380,688
11.1400,1680
11.1420,384
11.1440,992
11.1460,528
11.1480,1184
11.1500,1408
11.1520,3280
11.1540,784
11.1560,96
11.1580,928
11.1600,512
11.1620,544
11.1640,272
11.1660,192
11.1680,112
11.1700,192
11.1720,96
11.1740,928
11.1760,224
11.1780,560
11.1800,1808
11.1820,2336
11.1840,304
11.1860,400
11.1880,368
11.1900,224
11.1920,272
11.1940,2016
11.1960,2944
11.1980,656
11.2000,64
11.2020,512
11.2040,1536
11.2060,592
11.2080,1792
11.2100,304
11.2120,2464
11.2140,288
11.2160,1952
11.2180,960
11.2200,416
11.2220,16
11.2240,288
11.2260,816
11.2280,384
11.2300,768
11.2320,288
11.2340,864
11.2360,96
11.2380,320
11.2400,256
11.2420,432
11.2440,640
11.2460,224
11.2480,256
11.2500,448
11.2520,816
11.2540,192
11.2560,1152
11.2580,2048
11.2600,944
11.2620,832
11.2640,16
11.2660,400
11.2680,592
11.2700,0
11.2720,80
11.2740,464
11.2760,320
11.2780,384
11.2800,1600
11.2820,160
11.2840,0
11.2860,400
11.2880,0
11.2900,144
11.2920,672
11.2940,512
11.2960,896
11.2980,384
11.3000,224
11.3020,416
11.3040,704
11.3060,272
11.3080,400
11.3100,720
11.3120,320
11.3140,560
11.3160,560
11.3180,384
11.3200,352
11.3220,304
11.3240,240
11.3260,768
11.3280,224
11.3300,832
11.3320,1168
11.3340,736
11.3360,400
11.3380,480
11.3400,1104
11.3420,6705
11.3440,1152
11.3460,2976
11.3480,0
11.3500,0
11.3520,176
11.3540,496
11.3560,1584
11.3580,304
11.3600,720
11.3620,3088
11.3640,256
11.3660,432
11.3680,80
11.3700,352
11.3720,512
11.3740,2272
11.3760,1360
11.3780,1216
11.3800,32
11.3820,480
11.3840,656
11.3860,432
11.3880,1024
11.3900,976
11.3920,176
11.3940,304
11.3960,288
11.3980,96
11.4000,368
11.4020,320
11.4040,656
11.4060,2128
11.4080,1200
11.4100,2576
11.4120,352
11.4140,64
11.4160,96
11.4180,0
11.4200,272
11.4220,4193
11.4240,256
11.4260,464
11.4280,336
11.4300,656
11.4320,288
11.4340,1424
11.4360,784
11.4380,576
11.4400,1872
11.4420,1712
11.4440,272
11.4460,352
11.4480,1056
11.4500,416
11.4520,1120
11.4540,400
11.4560,720
11.4580,2368
11.4600,208
11.4620,544
11.4640,1728
11.4660,1728
11.4680,992
11.4700,336
11.4720,224
11.4740,656
11.4760,8017
11.4780,2528
11.4800,1168
11.4820,0
11.4840,1040
11.4860,1632
11.4880,560
11.4900,160
11.4920,224
11.4940,1504
11.4960,1968
11.4980,64
11.5000,624
11.5020,368
11.5040,496
11.5060,1408
11.5080,1680
11.5100,528
11.5120,592
11.5140,272
11.5160,336
11.5180,304
11.5200,128
11.5220,288
11.5240,1488
11.5260,1072
11.5280,592
11.5300,1008
11.5320,480
11.5340,432
11.5360,2128
11.5380,368
11.5400,512
11.5420,1168
11.5440,112
11.5460,256
11.5480,384
11.5500,464
11.5520,608
11.5540,80
11.5560,336
11.5580,288
11.5600,1552
11.5620,1632
11.5640,688
11.5660,272
11.5680,752
11.5700,1872
11.5720,288
11.5740,192
11.5760,288
11.5780,1024
11.5800,352
11.5820,464
11.5840,944
11.5860,48
11.5880,176
11.5900,768
11.5920,1568
11.5940,160
11.5960,208
11.5980,1888
11.6000,448
11.6020,272
11.6040,608
11.6060,5297
11.6080,544
11.6100,256
11.6120,1120
11.6140,2704
11.6160,160
11.6180,224
11.6200,144
11.6220,2736
11.6240,192
11.6260,1152
11.6280,80
11.6300,3168
11.6320,448
11.6340,864
11.6360,160
11.6380,176
11.6400,400
11.6420,6209
11.6440,464
11.6460,224
11.6480,128
11.6500,592
11.6520,288
11.6540,912
11.6560,304
11.6580,176
11.6600,2976
11.6620,32
11.6640,592
11.6660,720
11.6680,400
11.6700,0
11.6720,1168
11.6740,928
11.6760,992
11.6780,864
11.6800,0
11.6820,336
11.6840,160
11.6860,1872
11.6880,4577
11.6900,2112
11.6920,208
11.6940,544
11.6960,432
11.6980,320
11.7000,816
11.7020,544
11.7040,2224
11.7060,160
11.7080,144
11.7100,1408
11.7120,1056
11.7140,848
11.7160,32
11.7180,320
11.7200,0
11.7220,176
11.7240,208
11.7260,336
11.7280,6945
11.7300,2336
11.7320,944
11.7340,224
11.7360,992
11.7380,3104
11.7400,2608
11.7420,80
11.7440,384
11.7460,288
11.7480,560
11.7500,1888
11.7520,304
11.7540,5457
11.7560,3536
11.7580,256
11.7600,48
11.7620,0
11.7640,832
11.7660,1504
11.7680,848
11.7700,1088
11.7720,768
11.7740,288
11.7760,48
11.7780,160
11.7800,320
11.7820,800
11.7840,6449
11.7860,6353
11.7880,96
11.7900,192
11.7920,496
11.7940,432
11.7960,480
11.7980,352
11.8000,544
11.8020,672
11.8040,336
11.8060,1760
11.8080,3168
11.8100,560
11.8120,288
11.8140,1360
11.8160,864
11.8180,368
11.8200,416
11.8220,688
11.8240,128
11.8260,736
11.8280,384
11.8300,0
11.8320,208
11.8340,384
11.8360,96
11.8380,0
11.8400,32
11.8420,960
11.8440,80
11.8460,384
11.8480,1984
11.8500,576
11.8520,1376
11.8540,384
11.8560,208
11.8580,176
11.8600,16
11.8620,2048
11.8640,256
11.8660,1536
11.8680,1120
11.8700,512
11.8720,80
11.8740,48
11.8760,160
11.8780,4897
11.8800,6881
11.8820,272
11.8840,512
11.8860,304
11.8880,624
11.8900,464
11.8920,1184
11.8940,128
11.8960,96
11.8980,1712
11.9000,1728
11.9020,816
11.9040,400
11.9060,608
11.9080,320
11.9100,1168
11.9120,592
11.9140,256
11.9160,80
11.9180,64
11.9200,160
11.9220,304
11.9240,224
11.9260,336
11.9280,176
11.9300,992
11.9320,1504
11.9340,2080
11.9360,416
11.9380,496
11.9400,416
11.9420,128
11.9440,304
11.9460,176
11.9480,560
11.9500,208
11.9520,208
11.9540,1168
11.9560,576
11.9580,320
11.9600,0
11.9620,256
11.9640,96
11.9660,160
11.9680,208
11.9700,448
11.9720,912
11.9740,2352
11.9760,224
11.9780,2128
11.9800,416
11.9820,80
11.9840,1488
11.9860,1152
11.9880,608
11.9900,224
11.9920,320
11.9940,336
11.9960,2384
11.9980,1440
12.0000,256
12.0020,320
12.0040,400
12.0060,0
12.0080,832
12.0100,176
12.0120,304
12.0140,48
12.0160,304
12.0180,128
12.0200,176
12.0220,704
12.0240,208
12.0260,80
12.0280,592
12.0300,256
12.0320,560
12.0340,640
12.0360,5073
12.0380,400
12.0400,272
12.0420,320
12.0440,96
12.0460,688
12.0480,896
12.0500,1312
12.0520,192
12.0540,3296
12.0560,1968
12.0580,592
12.0600,848
12.0620,288
12.0640,208
12.0660,256
12.0680,848
12.0700,272
12.0720,448
12.0740,256
12.0760,224
12.0780,256
12.0800,416
12.0820,192
12.0840,640
12.0860,272
12.0880,208
12.0900,208
12.0920,1488
12.0940,352
12.0960,176
12.0980,208
12.1000,960
12.1020,736
12.1040,912
12.1060,976
12.1080,400
12.1100,560
12.1120,208
12.1140,80
12.1160,480
12.1180,160
12.1200,320
12.1220,192
12.1240,2496
12.1260,336
12.1280,144
12.1300,320
12.1320,304
12.1340,304
12.1360,416
12.1380,400
12.1400,0
12.1420,592
12.1440,192
12.1460,208
12.1480,80
12.1500,800
12.1520,272
12.1540,0
12.1560,96
12.1580,80
12.1600,288
12.1620,432
12.1640,320
12.1660,480
12.1680,336
12.1700,336
12.1720,64
12.1740,912
12.1760,320
12.1780,464
12.1800,416
12.1820,432
12.1840,224
12.1860,0
12.1880,5137
12.1900,2640
12.1920,272
12.1940,80
12.1960,256
12.1980,224
12.2000,576
12.2020,1088
12.2040,1376
12.2060,848
12.2080,80
12.2100,720
12.2120,128
12.2140,208
12.2160,608
12.2180,192
12.2200,704
12.2220,544
12.2240,400
12.2260,560
12.2280,400
12.2300,400
12.2320,0
12.2340,192
12.2360,96
12.2380,432
12.2400,288
12.2420,0
12.2440,128
12.2460,368
12.2480,192
12.2500,1120
12.2520,304
12.2540,1296
12.2560,400
12.2580,768
12.2600,896
12.2620,176
12.2640,1584
12.2660,672
12.2680,320
12.2700,304
12.2720,320
12.2740,64
12.2760,256
12.2780,576
12.2800,0
12.2820,272
12.2840,384
12.2860,336
12.2880,0
12.2900,160
12.2920,928
12.2940,240
12.2960,1984
12.2980,304
12.3000,160
12.3020,560
12.3040,1952
12.3060,288
12.3080,320
12.3100,1264
12.3120,2576
12.3140,192
12.3160,304
12.3180,240
12.3200,48
12.3220,240
12.3240,448
12.3260,80
12.3280,832
12.3300,848
12.3320,1120
12.3340,176
12.3360,976
12.3380,2736
12.3400,288
12.3420,272
12.3440,352
12.3460,48
12.3480,176
12.3500,224
12.3520,128
12.3540,512
12.3560,416
12.3580,2240
12.3600,2272
12.3620,400
12.3640,1936
12.3660,208
12.3680,4289
12.3700,10178
12.3720,160
12.3740,48
12.3760,688
12.3780,336
12.3800,112
12.3820,304
12.3840,272
12.3860,320
12.3880,992
12.3900,96
12.3920,784
12.3940,288
12.3960,1696
12.3980,512
12.4000,432
12.4020,1360
12.4040,336
12.4060,432
12.4080,1152
12.4100,2656
12.4120,160
12.4140,1232
12.4160,256
12.4180,160
12.4200,432
12.4220,128
12.4240,320
12.4260,112
12.4280,720
12.4300,608
12.4320,192
12.4340,176
12.4360,32
12.4380,320
12.4400,848
12.4420,2384
12.4440,1168
12.4460,1616
12.4480,448
12.4500,256
12.4520,336
12.4540,0
12.4560,272
12.4580,144
12.4600,1456
12.4620,336
12.4640,1936
12.4660,80
12.4680,672
12.4700,2512
12.4720,400
12.4740,224
12.4760,1200
12.4780,256
12.4800,16
12.4820,272
12.4840,224
12.4860,1632
12.4880,528
12.4900,64
12.4920,208
12.4940,1568
12.4960,304
12.4980,80
12.5000,32
12.5020,416
12.5040,48
12.5060,160
12.5080,416
12.5100,128
12.5120,672
12.5140,288
12.5160,672
12.5180,144
12.5200,288
12.5220,6081
12.5240,7681
12.5260,0
12.5280,368
12.5300,480
12.5320,288
12.5340,0
12.5360,0
12.5380,2080
12.5400,32
12.5420,272
12.5440,208
12.5460,656
12.5480,160
12.5500,48
12.5520,160
12.5540,1104
12.5560,416
12.5580,3360
12.5600,5137
12.5620,4705
12.5640,336
12.5660,304
12.5680,0
12.5700,128
12.5720,528
12.5740,528
12.5760,336
12.5780,352
12.5800,64
12.5820,320
12.5840,208
12.5860,272
12.5880,1760
12.5900,176
12.5920,192
12.5940,1888
12.5960,1152
12.5980,384
12.6000,0
12.6020,432
12.6040,176
12.6060,144
12.6080,128
12.6100,112
12.6120,192
12.6140,288
12.6160,1360
12.6180,864
12.6200,2192
12.6220,576
12.6240,304
12.6260,0
12.6280,80
12.6300,400
12.6320,496
12.6340,816
12.6360,1200
12.6380,752
12.6400,208
12.6420,0
12.6440,592
12.6460,992
12.6480,176
12.6500,224
12.6520,400
12.6540,192
12.6560,416
12.6580,1584
12.6600,224
12.6620,144
12.6640,544
12.6660,1968
12.6680,1024
12.6700,48
12.6720,848
12.6740,736
12.6760,272
12.6780,288
12.6800,192
12.6820,576
12.6840,176
12.6860,1024
12.6880,16
12.6900,352
12.6920,672
12.6940,1248
12.6960,464
12.6980,448
12.7000,288
12.7020,272
12.7040,304
12.7060,3968
12.7080,2576
12.7100,96
12.7120,224
12.7140,128
12.7160,0
12.7180,80
12.7200,96
12.7220,48
12.7240,48
12.7260,176
12.7280,64
12.7300,464
12.7320,576
12.7340,384
12.7360,160
12.7380,704
12.7400,1232
12.7420,0
12.7440,1760
12.7460,784
12.7480,288
12.7500,288
12.7520,2016
12.7540,1184
12.7560,560
12.7580,32
12.7600,416
12.7620,128
12.7640,560
12.7660,400
12.7680,80
12.7700,64
12.7720,80
12.7740,192
12.7760,1984
12.7780,960
12.7800,0
12.7820,1024
12.7840,512
12.7860,192
12.7880,656
12.7900,48
12.7920,608
12.7940,96
12.7960,64
12.7980,144
12.8000,272
12.8020,256
12.8040,336
12.8060,256
12.8080,1232
12.8100,304
12.8120,144
12.8140,112
12.8160,0
12.8180,144
12.8200,64
12.8220,896
12.8240,288
12.8260,6545
12.8280,208
12.8300,0
12.8320,5841
12.8340,7297
12.8360,2672
12.8380,3072
12.8400,0
12.8420,0
12.8440,2960
12.8460,32
12.8480,64
12.8500,1632
12.8520,160
12.8540,160
12.8560,16388
12.8580,9266
12.8600,720
12.8620,928
12.8640,2176
12.8660,8962
12.8680,544
12.8700,128
12.8720,352
12.8740,3328
12.8760,320
12.8780,128
12.8800,160
12.8820,384
12.8840,64
12.8860,432
12.8880,160
12.8900,48
12.8920,512
12.8940,2064
12.8960,384
12.8980,480
12.9000,480
12.9020,224
12.9040,304
12.9060,1920
12.9080,400
12.9100,1152
12.9120,336
12.9140,976
12.9160,896
12.9180,320
12.9200,144
12.9220,464
12.9240,128
12.9260,400
12.9280,160
12.9300,464
12.9320,448
12.9340,640
12.9360,976
12.9380,304
12.9400,208
12.9420,48
12.9440,1536
12.9460,1088
12.9480,96
12.9500,64
12.9520,304
12.9540,32
12.9560,272
12.9580,432
12.9600,96
12.9620,176
12.9640,160
12.9660,192
12.9680,160
12.9700,288
12.9720,64
12.9740,272
12.9760,464
12.9780,144
12.9800,432
12.9820,144
12.9840,64
12.9860,176
12.9880,1104
12.9900,3632
12.9920,2224
12.9940,112
12.9960,176
12.9980,3008
13.0000,464
13.0020,192
13.0040,144
13.0060,176
13.0080,224
13.0100,2432
13.0120,832
13.0140,384
13.0160,224
13.0180,96
13.0200,1456
13.0220,192
13.0240,48
13.0260,32
13.0280,160
13.0300,128
13.0320,320
13.0340,0
13.0360,320
13.0380,144
13.0400,1344
13.0420,16
13.0440,384
13.0460,256
13.0480,80
13.0500,96
13.0520,832
13.0540,4241
13.0560,208
13.0580,192
13.0600,208
13.0620,288
13.0640,176
13.0660,288
13.0680,208
13.0700,320
13.0720,816
13.0740,32
13.0760,320
13.0780,112
13.0800,304
13.0820,656
13.0840,352
13.0860,496
13.0880,0
13.0900,256
13.0920,0
13.0940,288
13.0960,320
13.0980,400
13.1000,224
13.1020,16
13.1040,320
13.1060,272
13.1080,176
13.1100,2112
13.1120,6497
13.1140,3360
13.1160,176
13.1180,208
13.1200,32
13.1220,560
13.1240,192
13.1260,2112
13.1280,1248
13.1300,336
13.1320,336
13.1340,240
13.1360,112
13.1380,672
13.1400,208
13.1420,2480
13.1440,496
13.1460,512
13.1480,0
13.1500,224
13.1520,32
13.1540,384
13.1560,1568
13.1580,1024
13.1600,304
13.1620,16
13.1640,272
13.1660,800
13.1680,352
13.1700,256
13.1720,672
13.1740,0
13.1760,0
13.1780,16
13.1800,0
13.1820,224
13.1840,448
13.1860,0
13.1880,0
13.1900,352
13.1920,0
13.1940,480
13.1960,2144
13.1980,160
13.2000,352
13.2020,608
13.2040,256
13.2060,1040
13.2080,1504
13.2100,32
13.2120,272
13.2140,176
13.2160,336
13.2180,160
13.2200,0
13.2220,0
13.2240,6577
13.2260,160
13.2280,1232
13.2300,5009
13.2320,5473
13.2340,144
13.2360,256
13.2380,1200
13.2400,1456
13.2420,96
13.2440,928
13.2460,2256
13.2480,1056
13.2500,128
13.2520,128
13.2540,352
13.2560,160
13.2580,384
13.2600,544
13.2620,1472
13.2640,5121
13.2660,272
13.2680,912
13.2700,224
13.2720,528
13.2740,1168
13.2760,288
13.2780,912
13.2800,2912
13.2820,5313
13.2840,0
13.2860,448
13.2880,8145
13.2900,3952
13.2920,2752
13.2940,1600
13.2960,176
13.2980,2320
13.3000,768
13.3020,288
13.3040,0
13.3060,1024
13.3080,64
13.3100,48
13.3120,144
13.3140,208
13.3160,608
13.3180,208
13.3200,32
13.3220,0
13.3240,784
13.3260,256
13.3280,0
13.3300,0
13.3320,400
13.3340,1600
13.3360,64
13.3380,64
13.3400,0
13.3420,0
13.3440,608
13.3460,816
13.3480,1360
13.3500,1312
13.3520,32
13.3540,128
13.3560,0
13.3580,160
13.3600,208
13.3620,1600
13.3640,3024
13.3660,1024
13.3680,208
13.3700,384
13.3720,2864
13.3740,784
13.3760,272
13.3780,0
13.3800,32
13.3820,304
13.3840,352
13.3860,48
13.3880,464
13.3900,560
13.3920,640
13.3940,272
13.3960,336
13.3980,336
13.4000,944
13.4020,416
13.4040,16
13.4060,0
13.4080,32
13.4100,544
13.4120,0
13.4140,0
13.4160,1488
13.4180,1600
13.4200,176
13.4220,320
13.4240,1536
13.4260,448
13.4280,576
13.4300,0
13.4320,928
13.4340,256
13.4360,784
13.4380,304
13.4400,0
13.4420,672
13.4440,7185
13.4460,10466
13.4480,1168
13.4500,256
13.4520,336
13.4540,144
13.4560,768
13.4580,720
13.4600,176
13.4620,0
13.4640,400
13.4660,224
13.4680,400
13.4700,320
13.4720,80
13.4740,560
13.4760,432
13.4780,448
13.4800,688
13.4820,416
13.4840,352
13.4860,1104
13.4880,688
13.4900,640
13.4920,1248
13.4940,160
13.4960,1920
13.4980,1184
13.5000,176
13.5020,144
13.5040,80
13.5060,976
13.5080,480
13.5100,96
13.5120,384
13.5140,592
13.5160,0
13.5180,1536
13.5200,688
13.5220,32
13.5240,208
13.5260,1168
13.5280,48
13.5300,16
13.5320,96
13.5340,1424
13.5360,496
13.5380,16
13.5400,288
13.5420,512
13.5440,256
13.5460,288
13.5480,208
13.5500,0
13.5520,800
13.5540,1024
13.5560,0
13.5580,224
13.5600,288
13.5620,144
13.5640,0
13.5660,256
13.5680,448
13.5700,128
13.5720,816
13.5740,784
13.5760,8065
13.5780,1024
13.5800,240
13.5820,2896
13.5840,16
13.5860,224
13.5880,128
13.5900,736
13.5920,2368
13.5940,448
13.5960,176
13.5980,128
13.6000,0
13.6020,96
13.6040,448
13.6060,928
13.6080,304
13.6100,1872
13.6120,608
13.6140,0
13.6160,512
13.6180,352
13.6200,960
13.6220,592
13.6240,272
13.6260,272
13.6280,176
13.6300,96
13.6320,144
13.6340,96
13.6360,592
13.6380,352
13.6400,304
13.6420,416
13.6440,0
13.6460,256
13.6480,304
13.6500,1488
13.6520,544
13.6540,368
13.6560,1440
13.6580,1952
13.6600,576
13.6620,192
13.6640,1072
13.6660,32
13.6680,0
13.6700,2640
13.6720,176
13.6740,336
13.6760,304
13.6780,48
13.6800,144
13.6820,0
13.6840,528
13.6860,144
13.6880,0
13.6900,32
13.6920,320
13.6940,1664
13.6960,0
13.6980,32
13.7000,272
13.7020,208
13.7040,0
13.7060,4881
13.7080,6817
13.7100,512
13.7120,0
13.7140,0
13.7160,80
13.7180,32
13.7200,160
13.7220,0
13.7240,80
13.7260,224
13.7280,64
13.7300,1600
13.7320,48
13.7340,0
13.7360,288
13.7380,400
13.7400,4273
13.7420,1280
13.7440,2080
13.7460,832
13.7480,416
13.7500,912
13.7520,352
13.7540,416
13.7560,176
13.7580,48
13.7600,272
13.7620,784
13.7640,704
13.7660,112
13.7680,0
13.7700,448
13.7720,224
13.7740,112
13.7760,1568
13.7780,1504
13.7800,976
13.7820,64
13.7840,400
13.7860,240
13.7880,816
13.7900,272
13.7920,128
13.7940,592
13.7960,0
13.7980,208
13.8000,0
13.8020,0
13.8040,400
13.8060,96
13.8080,0
13.8100,0
13.8120,384
13.8140,1248
13.8160,528
13.8180,3264
13.8200,0
13.8220,6737
13.8240,6817
13.8260,832
13.8280,320
13.8300,144
13.8320,0
13.8340,32
13.8360,0
13.8380,1008
13.8400,112
13.8420,288
13.8440,0
13.8460,0
13.8480,0
13.8500,64
13.8520,816
13.8540,48
13.8560,0
13.8580,0
13.8600,160
13.8620,0
13.8640,1440
13.8660,0
13.8680,240
13.8700,1040
13.8720,176
13.8740,384
13.8760,304
13.8780,160
13.8800,0
13.8820,592
13.8840,0
13.8860,208
13.8880,0
13.8900,1104
13.8920,80
13.8940,560
13.8960,96
13.8980,80
13.9000,0
13.9020,240
13.9040,32
13.9060,384
13.9080,160
13.9100,512
13.9120,3792
13.9140,2112
13.9160,144
13.9180,176
13.9200,0
13.9220,96
13.9240,304
13.9260,80
13.9280,288
13.9300,320
13.9320,0
13.9340,80
13.9360,0
13.9380,0
13.9400,0
13.9420,1568
13.9440,224
13.9460,160
13.9480,176
13.9500,176
13.9520,48
13.9540,160
13.9560,560
13.9580,672
13.9600,1552
13.9620,192
13.9640,96
13.9660,128
13.9680,16
13.9700,5585
13.9720,928
13.9740,640
13.9760,0
13.9780,0
13.9800,48
13.9820,96
13.9840,944
13.9860,0
13.9880,0
13.9900,288
13.9920,864
13.9940,80
13.9960,128
13.9980,208
14.0000,176
14.0020,176
14.0040,592
14.0060,720
14.0080,128
14.0100,0
14.0120,672
14.0140,1824
14.0160,896
14.0180,528
14.0200,320
14.0220,192
14.0240,320
14.0260,160
14.0280,304
14.0300,592
14.0320,1600
14.0340,320
14.0360,416
14.0380,352
14.0400,256
14.0420,128
14.0440,352
14.0460,432
14.0480,160
14.0500,0
14.0520,208
14.0540,176
14.0560,256
14.0580,384
14.0600,688
14.0620,320
14.0640,224
14.0660,784
14.0680,576
14.0700,32
14.0720,832
14.0740,1808
14.0760,80
14.0780,3632
14.0800,1744
14.0820,336
14.0840,416
14.0860,1696
14.0880,784
14.0900,384
14.0920,1952
14.0940,736
14.0960,352
14.0980,96
14.1000,160
14.1020,800
14.1040,192
14.1060,0
14.1080,368
14.1100,320
14.1120,288
14.1140,320
14.1160,208
14.1180,960
14.1200,80
14.1220,256
14.1240,944
14.1260,288
14.1280,1040
14.1300,288
14.1320,336
14.1340,128
14.1360,448
14.1380,0
14.1400,0
14.1420,768
14.1440,0
14.1460,720
14.1480,272
14.1500,400
14.1520,192
14.1540,144
14.1560,1072
14.1580,160
14.1600,384
14.1620,0
14.1640,128
14.1660,16
14.1680,464
14.1700,272
14.1720,160
14.1740,176
14.1760,896
14.1780,432
14.1800,416
14.1820,400
14.1840,880
14.1860,272
14.1880,352
14.1900,1216
14.1920,192
14.1940,1040
14.1960,208
14.1980,144
14.2000,272
14.2020,320
14.2040,128
14.2060,416
14.2080,928
14.2100,432
14.2120,688
14.2140,0
14.2160,544
14.2180,432
14.2200,320
14.2220,64
14.2240,240
14.2260,800
14.2280,864
14.2300,208
14.2320,640
14.2340,32
14.2360,1840
14.2380,160
14.2400,336
14.2420,912
14.2440,304
14.2460,320
14.2480,544
14.2500,64
14.2520,432
14.2540,352
14.2560,352
14.2580,176
14.2600,144
14.2620,4529
14.2640,7505
14.2660,304
14.2680,288
14.2700,0
14.2720,2000
14.2740,768
14.2760,208
14.2780,352
14.2800,160
14.2820,544
14.2840,1024
14.2860,0
14.2880,3488
14.2900,1824
14.2920,32
14.2940,288
14.2960,0
14.2980,160
14.3000,272
14.3020,512
14.3040,256
14.3060,352
14.3080,352
14.3100,1616
14.3120,224
14.3140,176
14.3160,64
14.3180,128
14.3200,144
14.3220,144
14.3240,288
14.3260,976
14.3280,80
14.3300,176
14.3320,1152
14.3340,144
14.3360,96
14.3380,128
14.3400,144
14.3420,0
14.3440,208
14.3460,32
14.3480,160
14.3500,336
14.3520,176
14.3540,144
14.3560,336
14.3580,960
14.3600,192
14.3620,144
14.3640,160
14.3660,2496
14.3680,2336
14.3700,1424
14.3720,1888
14.3740,1104
14.3760,496
14.3780,544
14.3800,48
14.3820,416
14.3840,32
14.3860,192
14.3880,16
14.3900,128
14.3920,0
14.3940,80
14.3960,0
14.3980,48
14.4000,0
14.4020,144
14.4040,1040
14.4060,464
14.4080,0
14.4100,192
14.4120,0
14.4140,0
14.4160,176
14.4180,64
14.4200,128
14.4220,0
14.4240,48
14.4260,0
14.4280,288
14.4300,5121
14.4320,5169
14.4340,96
14.4360,0
14.4380,4481
14.4400,16
14.4420,256
14.4440,144
14.4460,272
14.4480,544
14.4500,1728
14.4520,80
14.4540,0
14.4560,1072
14.4580,64
14.4600,944
14.4620,0
14.4640,0
14.4660,96
14.4680,192
14.4700,48
14.4720,0
14.4740,80
14.4760,304
14.4780,0
14.4800,0
14.4820,256
14.4840,304
14.4860,224
14.4880,0
14.4900,64
14.4920,224
14.4940,96
14.4960,48
14.4980,0
14.5000,32
14.5020,0
14.5040,0
14.5060,0
14.5080,672
14.5100,0
14.5120,1280
14.5140,2336
14.5160,1744
14.5180,704
14.5200,864
14.5220,336
14.5240,128
14.5260,32
14.5280,144
14.5300,576
14.5320,192
14.5340,0
14.5360,0
14.5380,0
14.5400,0
14.5420,576
14.5440,0
14.5460,192
14.5480,208
14.5500,272
14.5520,160
14.5540,176
14.5560,0
14.5580,208
14.5600,240
14.5620,0
14.5640,48
14.5660,368
14.5680,1088
14.5700,0
14.5720,0
14.5740,416
14.5760,384
14.5780,416
14.5800,736
14.5820,128
14.5840,32
14.5860,64
14.5880,672
14.5900,848
14.5920,656
14.5940,816
14.5960,1088
14.5980,608
14.6000,256
14.6020,0
14.6040,128
14.6060,80
14.6080,256
14.6100,192
14.6120,96
14.6140,0
14.6160,432
14.6180,128
14.6200,112
14.6220,352
14.6240,624
14.6260,416
14.6280,528
14.6300,160
14.6320,192
14.6340,0
14.6360,0
14.6380,16
14.6400,0
14.6420,0
14.6440,160
14.6460,0
14.6480,80
14.6500,4737
14.6520,9698
14.6540,528
14.6560,176
14.6580,288
14.6600,0
14.6620,0
14.6640,320
14.6660,0
14.6680,208
14.6700,128
14.6720,64
14.6740,1664
14.6760,1584
14.6780,0
14.6800,128
14.6820,0
14.6840,80
14.6860,16
14.6880,544
14.6900,512
14.6920,0
14.6940,0
14.6960,96
14.6980,544
14.7000,160
14.7020,0
14.7040,64
14.7060,272
14.7080,0
14.7100,32
14.7120,0
14.7140,704
14.7160,432
14.7180,16
14.7200,208
14.7220,80
14.7240,304
14.7260,1200
14.7280,720
14.7300,0
14.7320,48
14.7340,16
14.7360,176
14.7380,144
14.7400,256
14.7420,144
14.7440,448
14.7460,32
14.7480,288
14.7500,144
14.7520,768
14.7540,432
14.7560,576
14.7580,432
14.7600,400
14.7620,976
14.7640,336
14.7660,16
14.7680,1072
14.7700,704
14.7720,0
14.7740,272
14.7760,80
14.7780,672
14.7800,3632
14.7820,304
14.7840,400
14.7860,0
14.7880,896
14.7900,0
14.7920,384
14.7940,2752
14.7960,960
14.7980,64
14.8000,192
14.8020,288
14.8040,416
14.8060,0
14.8080,832
14.8100,48
14.8120,0
14.8140,272
14.8160,0
14.8180,1744
14.8200,0
14.8220,256
14.8240,64
14.8260,320
14.8280,112
14.8300,64
14.8320,0
14.8340,560
14.8360,48
14.8380,128
14.8400,320
14.8420,1504
14.8440,160
14.8460,208
14.8480,0
14.8500,304
14.8520,400
14.8540,0
14.8560,3264
14.8580,7857
14.8600,3184
14.8620,2272
14.8640,32
14.8660,1280
14.8680,656
14.8700,544
14.8720,0
14.8740,0
14.8760,128
14.8780,320
14.8800,192
14.8820,144
14.8840,0
14.8860,880
14.8880,0
14.8900,160
14.8920,560
14.8940,736
14.8960,32
14.8980,16
14.9000,816
14.9020,1344
14.9040,1600
14.9060,2704
14.9080,0
14.9100,0
14.9120,160
14.9140,2000
14.9160,48
14.9180,0
14.9200,208
14.9220,960
14.9240,0
14.9260,112
14.9280,80
14.9300,176
14.9320,64
14.9340,0
14.9360,864
14.9380,0
14.9400,0
14.9420,432
14.9440,128
14.9460,304
14.9480,272
14.9500,176
14.9520,400
14.9540,0
14.9560,176
14.9580,464
14.9600,576
14.9620,0
14.9640,416
14.9660,16
14.9680,96
14.9700,0
14.9720,1808
14.9740,48
14.9760,416
14.9780,336
14.9800,0
14.9820,288
14.9840,128
14.9860,432
14.9880,0
14.9900,0
14.9920,0
14.9940,0
14.9960,336
14.9980,0
15.0000,0
15.0020,48
15.0040,400
15.0060,336
15.0080,256
15.0100,32
15.0120,352
15.0140,64
15.0160,96
15.0180,0
15.0200,0
15.0220,80
15.0240,528
15.0260,224
15.0280,992
15.0300,0
15.0320,0
15.0340,944
15.0360,64
15.0380,3792
15.0400,6641
15.0420,384
15.0440,0
15.0460,0
15.0480,144
15.0500,80
15.0520,0
15.0540,672
15.0560,80
15.0580,2112
15.0600,176
15.0620,480
15.0640,144
15.0660,96
15.0680,0
15.0700,0
15.0720,1072
15.0740,48
15.0760,0
15.0780,192
15.0800,224
15.0820,0
15.0840,128
15.0860,224
15.0880,1968
15.0900,368
15.0920,112
15.0940,48
15.0960,352
15.0980,160
15.1000,432
15.1020,320
15.1040,64
15.1060,480
15.1080,1344
15.1100,0
15.1120,176
15.1140,0
15.1160,0
15.1180,224
15.1200,0
15.1220,32
15.1240,64
15.1260,848
15.1280,128
15.1300,0
15.1320,160
15.1340,400
15.1360,0
15.1380,256
15.1400,48
15.1420,32
15.1440,0
15.1460,0
15.1480,32
15.1500,0
15.1520,32
15.1540,0
15.1560,32
15.1580,992
15.1600,0
15.1620,160
15.1640,0
15.1660,208
15.1680,0
15.1700,0
15.1720,736
15.1740,2336
15.1760,0
15.1780,0
15.1800,0
15.1820,0
15.1840,80
15.1860,80
15.1880,960
15.1900,6193
15.1920,3040
15.1940,16
15.1960,64
15.1980,0
15.2000,192
15.2020,64
15.2040,1232
15.2060,128
15.2080,3456
15.2100,544
15.2120,0
15.2140,448
15.2160,656
15.2180,0
15.2200,0
15.2220,1328
15.2240,400
15.2260,1376
15.2280,144
15.2300,1184
15.2320,208
15.2340,0
15.2360,336
15.2380,208
15.2400,1376
15.2420,96
15.2440,448
15.2460,16
15.2480,48
15.2500,128
15.2520,32
15.2540,0
15.2560,0
15.2580,320
15.2600,0
15.2620,80
15.2640,0
15.2660,0
15.2680,480
15.2700,80
15.2720,304
15.2740,464
15.2760,0
15.2780,1104
15.2800,0
15.2820,48
15.2840,2000
15.2860,128
15.2880,0
15.2900,96
15.2920,0
15.2940,224
15.2960,0
15.2980,432
15.3000,1280
15.3020,0
15.3040,272
15.3060,0
15.3080,8418
15.3100,4193
15.3120,0
15.3140,560
15.3160,208
15.3180,128
15.3200,0
15.3220,768
15.3240,128
15.3260,400
15.3280,48
15.3300,128
15.3320,1440
15.3340,704
15.3360,48
15.3380,128
15.3400,224
15.3420,0
15.3440,128
15.3460,464
15.3480,672
15.3500,0
15.3520,32
15.3540,32
15.3560,1072
15.3580,112
15.3600,720
15.3620,304
15.3640,0
15.3660,0
15.3680,160
15.3700,816
15.3720,160
15.3740,912
15.3760,0
15.3780,448
15.3800,32
15.3820,16
15.3840,672
15.3860,128
15.3880,80
15.3900,48
15.3920,800
15.3940,144
15.3960,96
15.3980,1328
15.4000,464
15.4020,0
15.4040,32
15.4060,32
15.4080,80
15.4100,400
15.4120,640
15.4140,16
15.4160,0
15.4180,208
15.4200,1440
15.4220,480
15.4240,160
15.4260,80
15.4280,48
15.4300,48
15.4320,0
15.4340,144
15.4360,352
15.4380,208
15.4400,160
15.4420,32
15.4440,16
15.4460,336
15.4480,48
15.4500,416
15.4520,224
15.4540,0
15.4560,768
15.4580,448
15.4600,0
15.4620,80
15.4640,384
15.4660,0
15.4680,0
15.4700,464
15.4720,448
15.4740,224
15.4760,1744
15.4780,160
15.4800,768
15.4820,160
15.4840,0
15.4860,1792
15.4880,96
15.4900,32
15.4920,0
15.4940,0
15.4960,0
15.4980,32
15.5000,0
15.5020,208
15.5040,48
15.5060,48
15.5080,2608
15.5100,112
15.5120,80
15.5140,0
15.5160,96
15.5180,144
15.5200,288
15.5220,0
15.5240,0
15.5260,0
15.5280,80
15.5300,0
15.5320,144
15.5340,560
15.5360,0
15.5380,288
15.5400,64
15.5420,1040
15.5440,544
15.5460,1232
15.5480,448
15.5500,400
15.5520,0
15.5540,0
15.5560,0
15.5580,464
15.5600,0
15.5620,144
15.5640,160
15.5660,0
15.5680,96
15.5700,80
15.5720,416
15.5740,64
15.5760,0
15.5780,80
15.5800,64
15.5820,480
15.5840,48
15.5860,144
15.5880,544
15.5900,160
15.5920,0
15.5940,80
15.5960,480
15.5980,336
15.6000,288
15.6020,128
15.6040,0
15.6060,7185
15.6080,1856
15.6100,256
15.6120,0
15.6140,752
15.6160,608
15.6180,160
15.6200,112
15.6220,1440
15.6240,544
15.6260,208
15.6280,0
15.6300,272
15.6320,544
15.6340,176
15.6360,448
15.6380,176
15.6400,400
15.6420,528
15.6440,352
15.6460,160
15.6480,0
15.6500,736
15.6520,64
15.6540,256
15.6560,1152
15.6580,80
15.6600,0
15.6620,336
15.6640,0
15.6660,768
15.6680,512
15.6700,736
15.6720,0
15.6740,176
15.6760,128
15.6780,320
15.6800,0
15.6820,0
15.6840,592
15.6860,0
15.6880,0
15.6900,0
15.6920,128
15.6940,304
15.6960,368
15.6980,0
15.7000,48
15.7020,32
15.7040,0
15.7060,0
15.7080,0
15.7100,0
15.7120,0
15.7140,192
15.7160,64
15.7180,0
15.7200,1248
15.7220,480
15.7240,1552
15.7260,1280
15.7280,4080
15.7300,1952
15.7320,448
15.7340,432
15.7360,0
15.7380,48
15.7400,496
15.7420,0
15.7440,0
15.7460,240
15.7480,128
15.7500,192
15.7520,192
15.7540,96
15.7560,400
15.7580,544
15.7600,1136
15.7620,0
15.7640,96
15.7660,208
15.7680,64
15.7700,0
15.7720,704
15.7740,0
15.7760,336
15.7780,0
15.7800,592
15.7820,128
15.7840,16
15.7860,0
15.7880,1216
15.7900,432
15.7920,1456
15.7940,64
15.7960,304
15.7980,192
15.8000,0
15.8020,416
15.8040,304
15.8060,320
15.8080,1296
15.8100,480
15.8120,928
15.8140,272
15.8160,208
15.8180,0
15.8200,0
15.8220,1760
15.8240,80
15.8260,160
15.8280,224
15.8300,864
15.8320,0
15.8340,464
15.8360,3776
15.8380,3232
15.8400,352
15.8420,160
15.8440,512
15.8460,608
15.8480,0
15.8500,272
15.8520,288
15.8540,1712
15.8560,1488
15.8580,256
15.8600,80
15.8620,288
15.8640,272
15.8660,48
15.8680,144
15.8700,432
15.8720,2560
15.8740,816
15.8760,2096
15.8780,416
15.8800,48
15.8820,1664
15.8840,592
15.8860,416
15.8880,48
15.8900,2464
15.8920,32
15.8940,32
15.8960,240
15.8980,816
15.9000,208
15.9020,0
15.9040,48
15.9060,2640
15.9080,160
15.9100,0
15.9120,2144
15.9140,2656
15.9160,1632
15.9180,224
15.9200,1824
15.9220,4369
15.9240,208
15.9260,496
15.9280,544
15.9300,0
15.9320,32
15.9340,256
15.9360,640
15.9380,144
15.9400,5057
15.9420,5905
15.9440,3712
15.9460,5073
15.9480,3440
15.9500,256
15.9520,224
15.9540,0
15.9560,352
15.9580,304
15.9600,1584
15.9620,976
15.9640,3872
15.9660,112
15.9680,3024
15.9700,512
15.9720,528
15.9740,2688
15.9760,400
15.9780,0
15.9800,9778
15.9820,10146
15.9840,704
15.9860,3936
15.9880,384
15.9900,16
15.9920,2464
15.9940,192
15.9960,1312
15.9980,10994
16.0000,19780
16.0020,336
16.0040,2608
16.0060,192
16.0080,304
16.0100,512
16.0120,0
16.0140,0
16.0160,912
16.0180,2720
16.0200,3936
16.0220,1168
16.0240,9746
16.0260,1488
16.0280,8354
16.0300,304
16.0320,784
16.0340,2272
16.0360,272
16.0380,160
16.0400,736
16.0420,7633
16.0440,832
16.0460,2128
16.0480,1248
16.0500,2752
16.0520,848
16.0540,4641
16.0560,800
16.0580,1088
16.0600,7169
16.0620,7985
16.0640,608
16.0660,336
16.0680,1072
16.0700,672
16.0720,144
16.0740,3296
16.0760,4064
16.0780,2864
16.0800,1072
16.0820,7377
16.0840,6833
16.0860,512
16.0880,11218
16.0900,1744
16.0920,4353
16.0940,1408
16.0960,4417
16.0980,4129
16.1000,7569
16.1020,4145
16.1040,1264
16.1060,3328
16.1080,1456
16.1100,1072
16.1120,11090
16.1140,2448
16.1160,1120
16.1180,592
16.1200,3904
16.1220,0
16.1240,1184
16.1260,3248
16.1280,6321
16.1300,624
16.1320,7137
16.1340,5025
16.1360,192
16.1380,32
16.1400,2768
16.1420,7057
16.1440,5281
16.1460,272
16.1480,576
16.1500,2720
16.1520,512
16.1540,1376
16.1560,160
16.1580,912
16.1600,1200
16.1620,80
16.1640,5393
16.1660,8370
16.1680,12563
16.1700,19348
16.1720,7313
16.1740,20052
16.1760,6577
16.1780,0
16.1800,1216
16.1820,11970
16.1840,560
16.1860,5889
16.1880,4145
16.1900,5889
16.1920,2656
16.1940,6209
16.1960,6097
16.1980,1120
16.2000,1888
16.2020,15507
16.2040,9442
16.2060,13651
16.2080,1968
16.2100,1968
16.2120,4561
16.2140,11394
16.2160,24565
16.2180,10018
16.2200,14915
16.2220,11570
16.2240,28518
16.2260,32455
16.2280,13459
16.2300,34184
16.2320,3872
16.2340,1408
16.2360,2992
16.2380,1008
16.2400,448
16.2420,352
16.2440,2496
16.2460,14019
16.2480,448
16.2500,19092
16.2520,9986
16.2540,30999
16.2560,6657
16.2580,608
16.2600,7457
16.2620,6977
16.2640,25350
16.2660,34472
16.2680,32952
16.2700,384
16.2720,16980
16.2740,16227
16.2760,832
16.2780,14163
16.2800,19940
16.2820,8354
16.2840,4385
16.2860,4609
16.2880,24774
16.2900,3520
16.2920,6433
16.2940,12563
16.2960,2560
16.2980,10786
16.3000,18244
16.3020,10018
16.3040,7313
16.3060,7809
16.3080,6401
16.3100,336
16.3120,6369
16.3140,9394
16.3160,4705
16.3180,2256
16.3200,144
16.3220,2608
16.3240,15779
16.3260,7489
16.3280,2368
16.3300,8706
16.3320,20004
16.3340,2992
16.3360,14083
16.3380,26838
16.3400,512
16.3420,8674
16.3440,3760
16.3460,12947
16.3480,928
16.3500,1872
16.3520,8866
16.3540,9666
16.3560,6929
16.3580,10386
16.3600,352
16.3620,1424
16.3640,2448
16.3660,8866
16.3680,208
16.3700,2688
16.3720,7313
16.3740,1600
16.3760,5409
16.3780,3104
16.3800,29975
16.3820,11474
16.3840,224
16.3860,192
16.3880,4833
16.3900,16852
16.3920,3552
16.3940,14387
16.3960,960
16.3980,2064
16.4000,3152
16.4020,3136
16.4040,6113
16.4060,4113
16.4080,592
16.4100,8177
16.4120,12210
16.4140,7633
16.4160,8290
16.4180,12931
16.4200,2736
16.4220,944
16.4240,2384
16.4260,1344
16.4280,4097
16.4300,2112
16.4320,640
16.4340,4833
16.4360,400
16.4380,7985
16.4400,21029
16.4420,2816
16.4440,3776
16.4460,1856
16.4480,4673
16.4500,7265
16.4520,10594
16.4540,3712
16.4560,576
16.4580,24565
16.4600,6865
16.4620,7745
16.4640,8177
16.4660,800
16.4680,2016
16.4700,656
16.4720,1824
16.4740,6481
16.4760,10018
16.4780,656
16.4800,8674
16.4820,3216
16.4840,384
16.4860,960
16.4880,7953
16.4900,4657
16.4920,4801
16.4940,8770
16.4960,640
16.4980,4513
16.5000,11314
16.5020,7537
16.5040,14435
16.5060,12675
16.5080,4689
16.5100,17844
16.5120,34920
16.5140,4673
16.5160,7169
16.5180,17172
16.5200,20452
16.5220,18916
16.5240,1712
16.5260,6321
16.5280,1264
16.5300,2176
16.5320,14339
16.5340,3456
16.5360,14851
16.5380,10290
16.5400,288
16.5420,11106
16.5440,1504
16.5460,7969
16.5480,9410
16.5500,2048
16.5520,1984
16.5540,176
16.5560,17428
16.5580,2208
16.5600,10162
16.5620,1024
16.5640,15795
16.5660,784
16.5680,640
16.5700,5281
16.5720,3616
16.5740,7505
16.5760,3376
16.5780,20645
16.5800,3088
16.5820,2464
16.5840,1120
16.5860,15203
16.5880,4545
16.5900,4401
16.5920,1760
16.5940,23493
16.5960,13939
16.5980,13203
16.6000,13187
16.6020,10818
16.6040,10322
16.6060,22373
16.6080,272
16.6100,16676
16.6120,5713
16.6140,14291
16.6160,656
16.6180,9730
16.6200,9778
16.6220,14963
16.6240,7937
16.6260,944
16.6280,1360
16.6300,13779
16.6320,3600
16.6340,912
16.6360,3344
16.6380,416
16.6400,2496
16.6420,6465
16.6440,1632
16.6460,12947
16.6480,1344
16.6500,22277
16.6520,18916
16.6540,256
16.6560,11698
16.6580,3824
16.6600,9474
16.6620,10178
16.6640,30615
16.6660,20276
16.6680,3792
16.6700,4993
16.6720,160
16.6740,3040
16.6760,13331
16.6780,912
16.6800,4016
16.6820,1824
16.6840,5153
16.6860,3424
16.6880,5537
16.6900,17844
16.6920,11554
16.6940,2528
16.6960,6177
16.6980,13315
16.7000,1360
16.7020,5537
16.7040,11410
16.7060,4401
16.7080,480
16.7100,768
16.7120,5553
16.7140,13107
16.7160,5121
16.7180,416
16.7200,24758
16.7220,21349
16.7240,6881
16.7260,4289
16.7280,4353
16.7300,3488
16.7320,25542
16.7340,10754
16.7360,23525
16.7380,16420
16.7400,5409
16.7420,11490
16.7440,3280
16.7460,1808
16.7480,528
16.7500,8658
16.7520,480
16.7540,3120
16.7560,4097
16.7580,4305
16.7600,6049
16.7620,19396
16.7640,18308
16.7660,3616
16.7680,2304
16.7700,8658
16.7720,4000
16.7740,544
16.7760,416
16.7780,15315
16.7800,5441
16.7820,14003
16.7840,9570
16.7860,11954
16.7880,2608
16.7900,14147
16.7920,18900
16.7940,22373
16.7960,17380
16.7980,9906
16.8000,17012
16.8020,8194
16.8040,2992
16.8060,7633
16.8080,25094
16.8100,18100
16.8120,8594
16.8140,40169
16.8160,128
16.8180,5201
16.8200,1760
16.8220,3664
16.8240,2736
16.8260,4433
16.8280,1424
16.8300,9394
16.8320,4129
16.8340,1024
16.8360,3824
16.8380,38377
16.8400,18628
16.8420,28262
16.8440,208
16.8460,27910
16.8480,4145
16.8500,3536
16.8520,24069
16.8540,5217
16.8560,3904
16.8580,880
16.8600,736
16.8620,400
16.8640,6801
16.8660,912
16.8680,416
16.8700,9618
16.8720,4064
16.8740,3264
16.8760,3744
16.8780,384
16.8800,1840
16.8820,3392
16.8840,10626
16.8860,1072
16.8880,2368
16.8900,17796
16.8920,512
16.8940,1232
16.8960,18948
16.8980,24726
16.9000,32984
16.9020,4305
16.9040,18212
16.9060,6945
16.9080,11970
16.9100,3360
16.9120,1936
16.9140,10034
16.9160,7569
16.9180,11810
16.9200,6993
16.9220,2352
16.9240,5537
16.9260,14579
16.9280,1728
16.9300,176
16.9320,4241
16.9340,6241
16.9360,8962
16.9380,5073
16.9400,3296
16.9420,11346
16.9440,7681
16.9460,192
16.9480,3808
16.9500,3616
16.9520,16532
16.9540,11970
16.9560,33688
16.9580,8177
16.9600,6849
16.9620,2000
16.9640,336
16.9660,7889
16.9680,8177
16.9700,2096
16.9720,384
16.9740,22613
16.9760,10274
16.9780,25030
16.9800,28855
16.9820,4705
16.9840,20324
16.9860,10162
16.9880,1216
16.9900,2080
16.9920,5457
16.9940,2208
16.9960,34904
16.9980,17236
17.0000,464
17.0020,1792
17.0040,5361
17.0060,4289
17.0080,6417
17.0100,3856
17.0120,4945
17.0140,14339
17.0160,5905
17.0180,21621
17.0200,15235
17.0220,15571
17.0240,16996
17.0260,640
17.0280,6417
17.0300,4529
17.0320,6929
17.0340,5409
17.0360,3248
17.0380,4753
17.0400,13299
17.0420,1552
17.0440,1568
17.0460,5585
17.0480,9426
17.0500,9794
17.0520,12178
17.0540,8065
17.0560,3584
17.0580,12611
17.0600,23317
17.0620,9154
17.0640,2224
17.0660,3232
17.0680,1728
17.0700,11970
17.0720,14659
17.0740,11794
17.0760,28630
17.0780,5665
17.0800,8786
17.0820,12755
17.0840,1504
17.0860,12515
17.0880,7969
17.0900,1456
17.0920,33672
17.0940,22197
17.0960,29095
17.0980,13635
17.1000,16516
17.1020,2544
17.1040,9202
17.1060,3120
17.1080,7697
17.1100,832
17.1120,9042
17.1140,14851
17.1160,1504
17.1180,2000
17.1200,21589
17.1220,8658
17.1240,35352
17.1260,7441
17.1280,6049
17.1300,4561
17.1320,2912
17.1340,192
17.1360,6609
17.1380,528
17.1400,10354
17.1420,3888
17.1440,16323
17.1460,4689
17.1480,10322
17.1500,9666
17.1520,10322
17.1540,18564
17.1560,12114
17.1580,64
17.1600,2608
17.1620,14611
17.1640,1968
17.1660,19556
17.1680,656
17.1700,544
17.1720,29527
17.1740,80
17.1760,6689
17.1780,19300
17.1800,9058
17.1820,4000
17.1840,2768
17.1860,10146
17.1880,18644
17.1900,2592
17.1920,352
17.1940,8626
17.1960,5425
17.1980,688
17.2000,17476
17.2020,15363
17.2040,25350
17.2060,28470
17.2080,19332
17.2100,7569
17.2120,576
17.2140,4000
17.2160,4225
17.2180,8161
17.2200,5345
17.2220,8177
17.2240,8177
17.2260,512
17.2280,2368
17.2300,528
17.2320,4449
17.2340,17044
17.2360,304
17.2380,32
17.2400,4705
17.2420,4161
17.2440,5793
17.2460,10818
17.2480,6497
17.2500,24549
17.2520,3200
17.2540,19332
17.2560,1632
17.2580,1808
17.2600,3856
17.2620,19396
17.2640,2384
17.2660,15683
17.2680,1568
17.2700,10242
17.2720,2912
17.2740,1184
17.2760,2464
17.2780,2272
17.2800,3424
17.2820,10882
17.2840,9906
17.2860,15939
17.2880,13379
17.2900,12675
17.2920,9394
17.2940,6417
17.2960,6817
17.2980,16948
17.3000,512
17.3020,3456
17.3040,5473
17.3060,1920
17.3080,24517
17.3100,16948
17.3120,960
17.3140,912
17.3160,4785
17.3180,768
17.3200,800
17.3220,16612
17.3240,8338
17.3260,2176
17.3280,3696
17.3300,448
17.3320,4097
17.3340,20677
17.3360,7233
17.3380,11394
17.3400,1360
17.3420,1312
17.3440,384
17.3460,5025
17.3480,1632
17.3500,432
17.3520,29607
17.3540,8994
17.3560,10386
17.3580,3072
17.3600,19764
17.3620,1472
17.3640,9794
17.3660,11506
17.3680,2592
17.3700,7553
17.3720,8402
17.3740,7713
17.3760,12178
17.3780,912
17.3800,3456
17.3820,4913
17.3840,8754
17.3860,5793
17.3880,5601
17.3900,10962
17.3920,1392
17.3940,14883
17.3960,10258
17.3980,4817
17.4000,0
17.4020,16948
17.4040,20917
17.4060,5265
17.4080,6161
17.4100,736
17.4120,11906
17.4140,7553
17.4160,1264
17.4180,30487
17.4200,11922
17.4220,18340
17.4240,8706
17.4260,192
17.4280,6353
17.4300,10770
17.4320,14867
17.4340,19076
17.4360,19476
17.4380,12210
17.4400,10530
17.4420,8818
17.4440,3088
17.4460,320
17.4480,2688
17.4500,12803
17.4520,6113
17.4540,2736
17.4560,1856
17.4580,4016
17.4600,7137
17.4620,23141
17.4640,25350
17.4660,4048
17.4680,3072
17.4700,8306
17.4720,29255
17.4740,14771
17.4760,4064
17.4780,7297
17.4800,12467
17.4820,1040
17.4840,13123
17.4860,8914
17.4880,4321
17.4900,4801
17.4920,10306
17.4940,6081
17.4960,1216
17.4980,20581
17.5000,9298
17.5020,3312
17.5040,11074
17.5060,656
17.5080,14883
17.5100,3504
17.5120,5569
17.5140,8402
17.5160,1216
17.5180,15235
17.5200,80
17.5220,7425
17.5240,19140
17.5260,19940
17.5280,5089
17.5300,192
17.5320,1344
17.5340,7553
17.5360,6993
17.5380,2688
17.5400,1360
17.5420,12803
17.5440,23909
17.5460,2640
17.5480,4465
17.5500,13107
17.5520,6225
17.5540,5281
17.5560,11154
17.5580,5009
17.5600,13091
17.5620,17492
17.5640,3008
17.5660,10706
17.5680,3152
17.5700,2624
17.5720,5761
17.5740,432
17.5760,9042
17.5780,13395
17.5800,2224
17.5820,160
17.5840,64
17.5860,5569
17.5880,14931
17.5900,6993
17.5920,6497
17.5940,1312
17.5960,7169
17.5980,1888
17.6000,4321
17.6020,14291
17.6040,192
17.6060,7521
17.6080,15123
17.6100,4433
17.6120,1728
17.6140,22469
17.6160,1536
17.6180,17972
17.6200,19860
17.6220,2496
17.6240,12675
17.6260,3024
17.6280,144
17.6300,10610
17.6320,7201
17.6340,2768
17.6360,9474
17.6380,10066
17.6400,3520
17.6420,10386
17.6440,14259
17.6460,9378
17.6480,14035
17.6500,21125
17.6520,12979
17.6540,5281
17.6560,13107
17.6580,4865
17.6600,3248
17.6620,368
17.6640,8242
17.6660,14515
17.6680,21845
17.6700,7345
17.6720,2304
17.6740,18532
17.6760,1872
17.6780,2000
17.6800,2512
17.6820,448
17.6840,10722
17.6860,12979
17.6880,8177
17.6900,5057
17.6920,7777
17.6940,13315
17.6960,3680
17.6980,17748
17.7000,176
17.7020,22917
17.7040,2880
17.7060,11314
17.7080,4705
17.7100,18452
17.7120,560
17.7140,10418
17.7160,9922
17.7180,7201
17.7200,7825
17.7220,14931
17.7240,8498
17.7260,5185
17.7280,720
17.7300,960
17.7320,5201
17.7340,4000
17.7360,26438
17.7380,10882
17.7400,432
17.7420,3040
17.7440,2688
17.7460,4353
17.7480,6929
17.7500,1872
17.7520,3360
17.7540,5665
17.7560,15427
17.7580,6625
17.7600,784
17.7620,320
17.7640,9490
17.7660,3632
17.7680,352
17.7700,816
17.7720,8194
17.7740,784
17.7760,8802
17.7780,13107
17.7800,5809
17.7820,8161
17.7840,14355
17.7860,9874
17.7880,2800
17.7900,5329
17.7920,9666
17.7940,12675
17.7960,3136
17.7980,1360
17.8000,3776
17.8020,8033
17.8040,7393
17.8060,14259
17.8080,304
17.8100,9922
17.8120,7217
17.8140,4833
17.8160,10434
17.8180,9538
17.8200,2048
17.8220,7889
17.8240,0
17.8260,1408
17.8280,4305
17.8300,21125
17.8320,10018
17.8340,10754
17.8360,11218
17.8380,22997
17.8400,10930
17.8420,21509
17.8440,160
17.8460,3024
17.8480,3232
17.8500,11362
17.8520,13539
17.8540,12755
17.8560,160
17.8580,3552
17.8600,336
17.8620,1488
17.8640,2304
17.8660,2592
17.8680,10130
17.8700,512
17.8720,2576
17.8740,1344
17.8760,2384
17.8780,17668
17.8800,160
17.8820,10882
17.8840,336
17.8860,1808
17.8880,5409
17.8900,432
17.8920,1072
17.8940,10930
17.8960,6801
17.8980,1408
17.9000,848
17.9020,3840
17.9040,1824
17.9060,7249
17.9080,16243
17.9100,2096
17.9120,10386
17.9140,1920
17.9160,0
17.9180,7505
17.9200,4225
17.9220,15075
17.9240,560
17.9260,384
17.9280,9090
17.9300,3760
17.9320,1632
17.9340,656
17.9360,8642
17.9380,1104
17.9400,4657
17.9420,11042
17.9440,15635
17.9460,7057
17.9480,1696
17.9500,8674
17.9520,5457
17.9540,1008
17.9560,640
17.9580,1744
17.9600,18324
17.9620,17908
17.9640,10274
17.9660,6561
17.9680,7649
17.9700,15715
17.9720,5169
17.9740,672
17.9760,9282
17.9780,2128
17.9800,4609
17.9820,1200
17.9840,592
17.9860,3568
17.9880,3056
17.9900,2336
17.9920,6945
17.9940,18004
17.9960,9874
17.9980,3088
18.0000,11170
18.0020,18820
18.0040,10786
18.0060,2464
18.0080,3168
18.0100,8113
18.0120,7345
18.0140,6465
18.0160,30135
18.0180,24838
18.0200,11090
18.0220,8017
18.0240,10722
18.0260,14547
18.0280,11682
18.0300,528
18.0320,15651
18.0340,22101
18.0360,25734
18.0380,384
18.0400,192
18.0420,3792
18.0440,4737
18.0460,3088
18.0480,15251
18.0500,5377
18.0520,11826
18.0540,10786
18.0560,4064
18.0580,5057
18.0600,8402
18.0620,8482
18.0640,5793
18.0660,1920
18.0680,9138
18.0700,7297
18.0720,30135
18.0740,19348
18.0760,2480
18.0780,80
18.0800,16484
18.0820,12178
18.0840,13459
18.0860,15699
18.0880,1616
18.0900,18276
18.0920,9954
18.0940,6529
18.0960,36104
18.0980,6497
18.1000,19012
18.1020,512
18.1040,9442
18.1060,656
18.1080,12851
18.1100,18548
18.1120,4657
18.1140,21381
18.1160,848
18.1180,256
18.1200,8370
18.1220,25110
18.1240,13651
18.1260,10594
18.1280,14851
18.1300,12947
18.1320,3264
18.1340,10642
18.1360,6241
18.1380,2432
18.1400,5729
18.1420,11186
18.1440,6593
18.1460,12515
18.1480,256
18.1500,4080
18.1520,800
18.1540,2272
18.1560,1888
18.1580,1184
18.1600,4545
18.1620,1360
18.1640,800
18.1660,720
18.1680,6225
18.1700,7185
18.1720,9314
18.1740,33384
18.1760,10530
18.1780,18580
18.1800,2288
18.1820,1600
18.1840,7617
18.1860,1696
18.1880,7137
18.1900,6609
18.1920,3136
18.1940,8610
18.1960,5457
18.1980,1088
18.2000,928
18.2020,9010
18.2040,16692
18.2060,8177
18.2080,10802
18.2100,2384
18.2120,11010
18.2140,10162
18.2160,4305
18.2180,18084
18.2200,12595
18.2220,2048
18.2240,11346
18.2260,1040
18.2280,4705
18.2300,3392
18.2320,6321
18.2340,1680
18.2360,2480
18.2380,7409
18.2400,2400
18.2420,3776
18.2440,6433
18.2460,3008
18.2480,1104
18.2500,256
18.2520,3392
18.2540,9746
18.2560,6833
18.2580,3712
18.2600,2256
18.2620,416
18.2640,0
18.2660,7937
18.2680,3664
18.2700,784
18.2720,8914
18.2740,3152
18.2760,6737
18.2780,4433
18.2800,1040
18.2820,1424
18.2840,1520
18.2860,7441
18.2880,2864
18.2900,352
18.2920,10066
18.2940,10434
18.2960,1712
18.2980,1712
18.3000,3408
18.3020,2784
18.3040,9410
18.3060,6753
18.3080,13251
18.3100,29911
18.3120,24565
18.3140,7361
18.3160,208
18.3180,10594
18.3200,7393
18.3220,25142
18.3240,6849
18.3260,2112
18.3280,40009
18.3300,18580
18.3320,16051
18.3340,5153
18.3360,6625
18.3380,5281
18.3400,2368
18.3420,2624
18.3440,2960
18.3460,10770
18.3480,6737
18.3500,8898
18.3520,0
18.3540,944
18.3560,528
18.3580,272
18.3600,416
18.3620,688
18.3640,3664
18.3660,15779
18.3680,26054
18.3700,13699
18.3720,6209
18.3740,5409
18.3760,2160
18.3780,32824
18.3800,15891
18.3820,14931
18.3840,19476
18.3860,3408
18.3880,5633
18.3900,3504
18.3920,9394
18.3940,4048
18.3960,2944
18.3980,496
18.4000,512
18.4020,5537
18.4040,6977
18.4060,12066
18.4080,2544
18.4100,10418
18.4120,6321
18.4140,11154
18.4160,7649
18.4180,2240
18.4200,13075
18.4220,26390
18.4240,1568
18.4260,8946
18.4280,11826
18.4300,112
18.4320,224
18.4340,8177
18.4360,20581
18.4380,11746
18.4400,176
18.4420,1504
18.4440,11058
18.4460,5137
18.4480,8962
18.4500,13523
18.4520,5377
18.4540,1072
18.4560,10498
18.4580,4865
18.4600,24085
18.4620,11330
18.4640,18100
18.4660,14307
18.4680,11554
18.4700,48
18.4720,3648
18.4740,1344
18.4760,0
18.4780,7377
18.4800,15651
18.4820,224
18.4840,6545
18.4860,3744
18.4880,304
18.4900,3680
18.4920,2480
18.4940,24501
18.4960,9890
18.4980,19044
18.5000,10338
18.5020,16
18.5040,11042
18.5060,3360
18.5080,2016
18.5100,11874
18.5120,128
18.5140,5585
18.5160,7393
18.5180,18228
18.5200,192
18.5220,2864
18.5240,4993
18.5260,16612
18.5280,176
18.5300,13747
18.5320,528
18.5340,1216
18.5360,1872
18.5380,13315
18.5400,7105
18.5420,1504
18.5440,768
18.5460,10050
18.5480,10946
18.5500,7041
18.5520,22629
18.5540,6545
18.5560,13843
18.5580,10130
18.5600,16436
18.5620,2384
18.5640,192
18.5660,7889
18.5680,4705
18.5700,784
18.5720,7681
18.5740,5313
18.5760,4481
18.5780,12114
18.5800,19236
18.5820,12066
18.5840,22293
18.5860,24806
18.5880,12627
18.5900,6945
18.5920,19124
18.5940,6321
18.5960,10690
18.5980,560
18.6000,720
18.6020,144
18.6040,944
18.6060,784
18.6080,4817
18.6100,18404
18.6120,5825
18.6140,2512
18.6160,656
18.6180,0
18.6200,3424
18.6220,4929
18.6240,12307
18.6260,368
18.6280,240
18.6300,4417
18.6320,11778
18.6340,19012
18.6360,19220
18.6380,2496
18.6400,17300
18.6420,23301
18.6440,18276
18.6460,8177
18.6480,0
18.6500,12899
18.6520,3952
18.6540,64
18.6560,2144
18.6580,26054
18.6600,2464
18.6620,9890
18.6640,22805
18.6660,4145
18.6680,9058
18.6700,4897
18.6720,27590
18.6740,4353
18.6760,2064
18.6780,736
18.6800,1376
18.6820,6193
18.6840,992
18.6860,4097
18.6880,7777
18.6900,4833
18.6920,7121
18.6940,8177
18.6960,24133
18.6980,7809
18.7000,18580
18.7020,7745
18.7040,8017
18.7060,4353
18.7080,8338
18.7100,1040
18.7120,12995
18.7140,416
18.7160,2624
18.7180,752
18.7200,12547
18.7220,1776
18.7240,784
18.7260,1552
18.7280,848
18.7300,12579
18.7320,15299
18.7340,8274
18.7360,7377
18.7380,6321
18.7400,2656
18.7420,1728
18.7440,640
18.7460,1296
18.7480,24373
18.7500,7489
18.7520,9746
18.7540,14387
18.7560,864
18.7580,16532
18.7600,20116
18.7620,272
18.7640,8129
18.7660,1072
18.7680,18708
18.7700,16307
18.7720,9682
18.7740,2624
18.7760,3520
18.7780,7521
18.7800,7105
18.7820,3136
18.7840,672
18.7860,8177
18.7880,6849
18.7900,2064
18.7920,6145
18.7940,1584
18.7960,8386
18.7980,2320
18.8000,14115
18.8020,0
18.8040,6273
18.8060,13187
18.8080,288
18.8100,27734
18.8120,1792
18.8140,3232
18.8160,128
18.8180,3216
18.8200,304
18.8220,6545
18.8240,12563
18.8260,17860
18.8280,8177
18.8300,14947
18.8320,1904
18.8340,2384
18.8360,2896
18.8380,7249
18.8400,16323
18.8420,256
18.8440,64
18.8460,7777
18.8480,7249
18.8500,4529
18.8520,2976
18.8540,12258
18.8560,7505
18.8580,1920
18.8600,10626
18.8620,19028
18.8640,352
18.8660,12258
18.8680,3728
18.8700,11490
18.8720,0
18.8740,14163
18.8760,2288
18.8780,5921
18.8800,9698
18.8820,8722
18.8840,9106
18.8860,2048
18.8880,5505
18.8900,13395
18.8920,1072
18.8940,0
18.8960,20677
18.8980,13715
18.9000,2112
18.9020,11090
18.9040,2224
18.9060,2256
18.9080,656
18.9100,928
18.9120,9122
18.9140,3168
18.9160,5185
18.9180,4000
18.9200,8722
18.9220,32
18.9240,5201
18.9260,7585
18.9280,11602
18.9300,688
18.9320,11042
18.9340,3856
18.9360,1120
18.9380,12707
18.9400,7521
18.9420,10850
18.9440,10466
18.9460,0
18.9480,736
18.9500,17380
18.9520,9138
18.9540,0
18.9560,7825
18.9580,1376
18.9600,672
18.9620,6865
18.9640,480
18.9660,0
18.9680,560
18.9700,8978
18.9720,1808
18.9740,17028
18.9760,6977
18.9780,3632
18.9800,6673
18.9820,3136
18.9840,0
18.9860,6625
18.9880,6753
18.9900,848
18.9920,6625
18.9940,5809
18.9960,128
18.9980,8065
19.0000,8129
19.0020,8722
19.0040,10738
19.0060,3808
19.0080,400
19.0100,8674
19.0120,544
19.0140,1488
19.0160,208
19.0180,5889
19.0200,6353
19.0220,25958
19.0240,400
19.0260,4129
19.0280,4945
19.0300,17348
19.0320,18900
19.0340,23941
19.0360,0
19.0380,1312
19.0400,16596
19.0420,8113
19.0440,0
19.0460,5537
19.0480,8626
19.0500,3168
19.0520,2736
19.0540,3024
19.0560,1072
19.0580,7953
19.0600,512
19.0620,25894
19.0640,1808
19.0660,46011
19.0680,960
19.0700,9650
19.0720,5953
19.0740,7169
19.0760,4353
19.0780,7521
19.0800,3040
19.0820,4737
19.0840,8754
19.0860,17956
19.0880,17396
19.0900,4064
19.0920,0
19.0940,12739
19.0960,224
19.0980,13507
19.1000,592
19.1020,8177
19.1040,1216
19.1060,7873
19.1080,1792
19.1100,128
19.1120,11874
19.1140,6833
19.1160,576
19.1180,4032
19.1200,14211
19.1220,3392
19.1240,176
19.1260,4993
19.1280,1312
19.1300,10546
19.1320,304
19.1340,9442
19.1360,24565
19.1380,16980
19.1400,1968
19.1420,704
19.1440,960
19.1460,4000
19.1480,10258
19.1500,13539
19.1520,14851
19.1540,5713
19.1560,13907
19.1580,8546
19.1600,6881
19.1620,23365
19.1640,28855
19.1660,5345
19.1680,4385
19.1700,2512
19.1720,4753
19.1740,3744
19.1760,784
19.1780,800
19.1800,5009
19.1820,5201
19.1840,432
19.1860,3568
19.1880,7041
19.1900,15587
19.1920,4993
19.1940,5137
19.1960,3808
19.1980,9042
19.2000,2144
19.2020,2320
19.2040,10130
19.2060,5665
19.2080,8594
19.2100,2112
19.2120,304
19.2140,1792
19.2160,13619
19.2180,3008
19.2200,0
19.2220,2192
19.2240,6049
19.2260,2848
19.2280,3712
19.2300,20164
19.2320,656
19.2340,2832
19.2360,2944
19.2380,6657
19.2400,1072
19.2420,4609
19.2440,5249
19.2460,10578
19.2480,14259
19.2500,6801
19.2520,6913
19.2540,18004
19.2560,480
19.2580,1024
19.2600,352
19.2620,2176
19.2640,256
19.2660,9154
19.2680,9090
19.2700,2112
19.2720,4529
19.2740,11906
19.2760,18868
19.2780,7553
19.2800,336
19.2820,192
19.2840,5793
19.2860,8177
19.2880,656
19.2900,896
19.2920,6785
19.2940,1488
19.2960,432
19.2980,8210
19.3000,4385
19.3020,6849
19.3040,192
19.3060,224
19.3080,4225
19.3100,0
19.3120,6209
19.3140,304
19.3160,5665
19.3180,4321
19.3200,4545
19.3220,3168
19.3240,2832
19.3260,8930
19.3280,160
19.3300,0
19.3320,144
19.3340,3136
19.3360,0
19.3380,4417
19.3400,7649
19.3420,4865
19.3440,9138
19.3460,5617
19.3480,4225
19.3500,0
19.3520,16147
19.3540,25862
19.3560,9490
19.3580,2208
19.3600,2384
19.3620,3152
19.3640,448
19.3660,864
19.3680,8786
19.3700,5345
19.3720,832
19.3740,4913
19.3760,464
19.3780,0
19.3800,1440
19.3820,0
19.3840,10082
19.3860,2128
19.3880,0
19.3900,800
19.3920,5025
19.3940,6113
19.3960,160
19.3980,3376
19.4000,6177
19.4020,976
19.4040,128
19.4060,128
19.4080,15811
19.4100,20100
19.4120,14931
19.4140,2720
19.4160,4321
19.4180,640
19.4200,800
19.4220,3024
19.4240,1696
19.4260,11602
19.4280,608
19.4300,10050
19.4320,8594
19.4340,2752
19.4360,15107
19.4380,6209
19.4400,8930
19.4420,2048
19.4440,8226
19.4460,10578
19.4480,19140
19.4500,15251
19.4520,14467
19.4540,29767
19.4560,21973
19.4580,6817
19.4600,208
19.4620,21605
19.4640,1744
19.4660,14499
19.4680,9538
19.4700,0
19.4720,4417
19.4740,1760
19.4760,22773
19.4780,21333
19.4800,80
19.4820,4401
19.4840,1872
19.4860,3152
19.4880,5937
19.4900,10306
19.4920,6193
19.4940,11250
19.4960,8994
19.4980,10674
19.5000,15315
19.5020,576
19.5040,8370
19.5060,4577
19.5080,24101
19.5100,31287
19.5120,10962
19.5140,4177
19.5160,10146
19.5180,6993
19.5200,7505
19.5220,16227
19.5240,11890
19.5260,2832
19.5280,23653
19.5300,4689
19.5320,6945
19.5340,8177
19.5360,4177
19.5380,17412
19.5400,3376
19.5420,24630
19.5440,12355
19.5460,640
19.5480,6929
19.5500,16820
19.5520,5937
19.5540,2080
19.5560,7377
19.5580,3648
19.5600,1312
19.5620,14403
19.5640,16756
19.5660,2016
19.5680,8994
19.5700,9186
19.5720,20436
19.5740,9218
19.5760,1968
19.5780,1664
19.5800,21141
19.5820,4705
19.5840,2688
19.5860,4993
19.5880,23317
19.5900,10546
19.5920,23477
19.5940,11922
19.5960,944
19.5980,1104
19.6000,6673
19.6020,5569
19.6040,4417
19.6060,12050
19.6080,8177
19.6100,2000
19.6120,16051
19.6140,480
19.6160,6465
19.6180,608
19.6200,832
19.6220,0
19.6240,160
19.6260,2352
19.6280,5633
19.6300,240
19.6320,2528
19.6340,5537
19.6360,6529
19.6380,18436
19.6400,12851
19.6420,704
19.6440,13523
19.6460,1152
19.6480,480
19.6500,9570
19.6520,3968
19.6540,5681
19.6560,17684
19.6580,13139
19.6600,10050
19.6620,4433
19.6640,5761
19.6660,7937
19.6680,8594
19.6700,4353
19.6720,3152
19.6740,208
19.6760,592
19.6780,5873
19.6800,19156
19.6820,16964
19.6840,8706
19.6860,18100
19.6880,3328
19.6900,14275
19.6920,14659
19.6940,7649
19.6960,21941
19.6980,4305
19.7000,23573
19.7020,4833
19.7040,23653
19.7060,112
19.7080,2992
19.7100,10514
19.7120,3344
19.7140,10658
19.7160,144
19.7180,288
19.7200,16211
19.7220,10194
19.7240,2624
19.7260,0
19.7280,21957
19.7300,15587
19.7320,7777
19.7340,6305
19.7360,1184
19.7380,560
19.7400,144
19.7420,0
19.7440,5809
19.7460,3216
19.7480,2368
19.7500,320
19.7520,13155
19.7540,3888
19.7560,12355
19.7580,5713
19.7600,1536
19.7620,11042
19.7640,2320
19.7660,18932
19.7680,1280
19.7700,13539
19.7720,96
19.7740,0
19.7760,5617
19.7780,1152
19.7800,48
19.7820,8386
19.7840,4257
19.7860,2208
19.7880,9202
19.7900,14963
19.7920,3296
19.7940,64
19.7960,14387
19.7980,5409
19.8000,6545
19.8020,1200
19.8040,1744
19.8060,11106
19.8080,592
19.8100,2096
19.8120,18340
19.8140,6913
19.8160,7857
19.8180,3056
19.8200,14243
19.8220,1360
19.8240,4289
19.8260,1520
19.8280,8033
19.8300,912
19.8320,2784
19.8340,20228
19.8360,4353
19.8380,12691
19.8400,0
19.8420,7457
19.8440,736
19.8460,7665
19.8480,31719
19.8500,5281
19.8520,4529
19.8540,29991
19.8560,24213
19.8580,8177
19.8600,14227
19.8620,6545
19.8640,10562
19.8660,3936
19.8680,2384
19.8700,6145
19.8720,2640
19.8740,5969
19.8760,864
19.8780,7809
19.8800,5297
19.8820,7009
19.8840,24614
19.8860,28871
19.8880,16323
19.8900,18196
19.8920,28070
19.8940,38425
19.8960,15619
19.8980,36184
19.9000,38761
19.9020,37145
19.9040,19364
19.9060,20693
19.9080,16323
19.9100,14435
19.9120,20501
19.9140,23813
19.9160,4513
19.9180,1712
19.9200,5793
19.9220,15491
19.9240,3312
19.9260,8274
19.9280,96
19.9300,8770
19.9320,7489
19.9340,5793
19.9360,128
19.9380,5329
19.9400,8033
19.9420,2624
19.9440,832
19.9460,3600
19.9480,1936
19.9500,0
19.9520,2960
19.9540,1744
19.9560,6657
19.9580,2960
19.9600,544
19.9620,0
19.9640,912
19.9660,5041
19.9680,6225
19.9700,2720
19.9720,13475
19.9740,38713
19.9760,8258
19.9780,11938
19.9800,33560
19.9820,60606
19.9840,3296
19.9860,5841
19.9880,10642
19.9900,34184
19.9920,1968
19.9940,28743
19.9960,2000
19.9980,10706
20.0000,3680
20.0020,10642
20.0040,6273
20.0060,1360
20.0080,1600
20.0100,5441
20.0120,1520
20.0140,3664
20.0160,1936
20.0180,1216
20.0200,4865
20.0220,3424
20.0240,3008
20.0260,1056
20.0280,1840
20.0300,1680
20.0320,2976
20.0340,5457
20.0360,1232
20.0380,2752
20.0400,0
20.0420,4401
20.0440,32551
20.0460,5201
20.0480,38233
20.0500,4305
20.0520,12355
20.0540,21429
20.0560,18980
20.0580,8177
20.0600,19860
20.0620,8882
20.0640,400
20.0660,2560
20.0680,5473
20.0700,0
20.0720,13971
20.0740,8962
