Tempo(s),EMG_Value
0.0000,1280
0.0020,1664
0.0040,1040
0.0060,960
0.0080,784
0.0100,848
0.0120,1168
0.0140,928
0.0160,1120
0.0180,1376
0.0200,736
0.0220,1216
0.0240,1280
0.0260,1328
0.0280,992
0.0300,1248
0.0320,1392
0.0340,1376
0.0360,1168
0.0380,1232
0.0400,1056
0.0420,944
0.0440,1136
0.0460,736
0.0480,1008
0.0500,1280
0.0520,1120
0.0540,1152
0.0560,752
0.0580,768
0.0600,1280
0.0620,608
0.0640,1232
0.0660,672
0.0680,928
0.0700,816
0.0720,1312
0.0740,736
0.0760,832
0.0780,688
0.0800,928
0.0820,720
0.0840,928
0.0860,1328
0.0880,1424
0.0900,1152
0.0920,960
0.0940,1152
0.0960,816
0.0980,1040
0.1000,1088
0.1020,896
0.1040,880
0.1060,864
0.1080,800
0.1100,944
0.1120,1216
0.1140,1024
0.1160,1056
0.1180,1360
0.1200,1312
0.1220,1184
0.1240,1312
0.1260,1120
0.1280,1440
0.1300,1376
0.1320,720
0.1340,928
0.1360,864
0.1380,1248
0.1400,896
0.1420,544
0.1440,1120
0.1460,752
0.1480,1024
0.1500,768
0.1520,1600
0.1540,1296
0.1560,736
0.1580,720
0.1600,848
0.1620,688
0.1640,1120
0.1660,1184
0.1680,1056
0.1700,1280
0.1720,1056
0.1740,752
0.1760,768
0.1780,1120
0.1800,816
0.1820,1152
0.1840,1104
0.1860,1584
0.1880,1120
0.1900,1168
0.1920,1200
0.1940,960
0.1960,1024
0.1980,688
0.2000,1184
0.2020,1184
0.2040,1072
0.2060,784
0.2080,768
0.2100,704
0.2120,944
0.2140,976
0.2160,992
0.2180,992
0.2200,1232
0.2220,1120
0.2240,816
0.2260,1216
0.2280,1424
0.2300,1168
0.2320,960
0.2340,944
0.2360,2128
0.2380,2064
0.2400,832
0.2420,928
0.2440,816
0.2460,1216
0.2480,1168
0.2500,1072
0.2520,1008
0.2540,960
0.2560,1056
0.2580,1072
0.2600,1056
0.2620,704
0.2640,1232
0.2660,1072
0.2680,1728
0.2700,944
0.2720,1072
0.2740,1280
0.2760,832
0.2780,1104
0.2800,944
0.2820,944
0.2840,1360
0.2860,816
0.2880,1680
0.2900,1264
0.2920,1072
0.2940,768
0.2960,1200
0.2980,1248
0.3000,1440
0.3020,1072
0.3040,896
0.3060,736
0.3080,928
0.3100,784
0.3120,1424
0.3140,1120
0.3160,1504
0.3180,992
0.3200,880
0.3220,1120
0.3240,1056
0.3260,928
0.3280,800
0.3300,848
0.3320,1376
0.3340,960
0.3360,1360
0.3380,688
0.3400,1120
0.3420,992
0.3440,1120
0.3460,880
0.3480,1536
0.3500,1056
0.3520,1136
0.3540,848
0.3560,1296
0.3580,2432
0.3600,1152
0.3620,1184
0.3640,1024
0.3660,688
0.3680,944
0.3700,832
0.3720,976
0.3740,2240
0.3760,1280
0.3780,1008
0.3800,1136
0.3820,960
0.3840,800
0.3860,1024
0.3880,1104
0.3900,1040
0.3920,1152
0.3940,1152
0.3960,896
0.3980,1440
0.4000,1184
0.4020,1088
0.4040,1312
0.4060,912
0.4080,768
0.4100,1312
0.4120,1200
0.4140,1376
0.4160,1504
0.4180,1088
0.4200,1104
0.4220,768
0.4240,912
0.4260,1168
0.4280,1056
0.4300,1216
0.4320,1168
0.4340,1088
0.4360,1200
0.4380,1360
0.4400,1504
0.4420,928
0.4440,688
0.4460,1056
0.4480,1040
0.4500,1088
0.4520,1152
0.4540,832
0.4560,1056
0.4580,1072
0.4600,1120
0.4620,1040
0.4640,1120
0.4660,1168
0.4680,816
0.4700,1552
0.4720,928
0.4740,992
0.4760,1200
0.4780,1024
0.4800,1024
0.4820,1168
0.4840,1200
0.4860,1072
0.4880,976
0.4900,592
0.4920,1120
0.4940,1168
0.4960,1088
0.4980,784
0.5000,960
0.5020,1728
0.5040,976
0.5060,928
0.5080,1104
0.5100,720
0.5120,1120
0.5140,1104
0.5160,1184
0.5180,720
0.5200,880
0.5220,1200
0.5240,848
0.5260,2976
0.5280,1152
0.5300,848
0.5320,736
0.5340,912
0.5360,960
0.5380,896
0.5400,1088
0.5420,800
0.5440,1024
0.5460,1104
0.5480,1280
0.5500,1216
0.5520,1360
0.5540,976
0.5560,1184
0.5580,1232
0.5600,736
0.5620,928
0.5640,928
0.5660,1360
0.5680,1728
0.5700,1456
0.5720,1152
0.5740,1152
0.5760,912
0.5780,1072
0.5800,800
0.5820,816
0.5840,1264
0.5860,1232
0.5880,800
0.5900,1264
0.5920,736
0.5940,1312
0.5960,1040
0.5980,1536
0.6000,1584
0.6020,976
0.6040,1040
0.6060,1280
0.6080,1056
0.6100,896
0.6120,848
0.6140,1200
0.6160,1152
0.6180,944
0.6200,1216
0.6220,1536
0.6240,784
0.6260,1024
0.6280,1040
0.6300,1072
0.6320,928
0.6340,1536
0.6360,1248
0.6380,1440
0.6400,864
0.6420,1136
0.6440,960
0.6460,768
0.6480,720
0.6500,672
0.6520,1280
0.6540,816
0.6560,832
0.6580,992
0.6600,944
0.6620,1200
0.6640,1072
0.6660,1520
0.6680,1296
0.6700,1200
0.6720,1152
0.6740,1168
0.6760,864
0.6780,720
0.6800,1040
0.6820,1328
0.6840,1200
0.6860,1296
0.6880,1120
0.6900,1136
0.6920,896
0.6940,896
0.6960,896
0.6980,896
0.7000,1216
0.7020,1088
0.7040,1216
0.7060,976
0.7080,880
0.7100,816
0.7120,928
0.7140,912
0.7160,1296
0.7180,848
0.7200,864
0.7220,800
0.7240,912
0.7260,912
0.7280,944
0.7300,1296
0.7320,1200
0.7340,1200
0.7360,1024
0.7380,1280
0.7400,1568
0.7420,1152
0.7440,1088
0.7460,1328
0.7480,1760
0.7500,1440
0.7520,1024
0.7540,1232
0.7560,928
0.7580,1072
0.7600,1168
0.7620,944
0.7640,1104
0.7660,1504
0.7680,1280
0.7700,928
0.7720,1024
0.7740,784
0.7760,1392
0.7780,1040
0.7800,896
0.7820,1024
0.7840,688
0.7860,1312
0.7880,1184
0.7900,816
0.7920,720
0.7940,1360
0.7960,832
0.7980,1520
0.8000,1424
0.8020,1040
0.8040,944
0.8060,768
0.8080,1024
0.8100,992
0.8120,1296
0.8140,1168
0.8160,960
0.8180,1312
0.8200,896
0.8220,1184
0.8240,1120
0.8260,800
0.8280,1360
0.8300,1072
0.8320,1168
0.8340,976
0.8360,1168
0.8380,944
0.8400,704
0.8420,1360
0.8440,912
0.8460,896
0.8480,896
0.8500,832
0.8520,1440
0.8540,1296
0.8560,1216
0.8580,1024
0.8600,1152
0.8620,880
0.8640,1328
0.8660,912
0.8680,1344
0.8700,1504
0.8720,1152
0.8740,1504
0.8760,1104
0.8780,816
0.8800,1184
0.8820,1120
0.8840,896
0.8860,1744
0.8880,1232
0.8900,960
0.8920,896
0.8940,1168
0.8960,784
0.8980,1328
0.9000,1104
0.9020,1712
0.9040,1120
0.9060,848
0.9080,1056
0.9100,1152
0.9120,864
0.9140,1408
0.9160,1440
0.9180,1360
0.9200,1232
0.9220,1232
0.9240,1040
0.9260,928
0.9280,1520
0.9300,1120
0.9320,1120
0.9340,832
0.9360,1568
0.9380,1232
0.9400,1168
0.9420,960
0.9440,1248
0.9460,944
0.9480,1408
0.9500,1488
0.9520,944
0.9540,1680
0.9560,848
0.9580,1200
0.9600,896
0.9620,816
0.9640,1040
0.9660,960
0.9680,1216
0.9700,992
0.9720,1120
0.9740,992
0.9760,1024
0.9780,1168
0.9800,896
0.9820,1184
0.9840,1232
0.9860,1360
0.9880,864
0.9900,976
0.9920,832
0.9940,1184
0.9960,1472
0.9980,800
1.0000,1552
1.0020,1200
1.0040,1104
1.0060,1312
1.0080,1200
1.0100,896
1.0120,976
1.0140,1184
1.0160,1008
1.0180,1120
1.0200,1248
1.0220,1168
1.0240,768
1.0260,1168
1.0280,848
1.0300,944
1.0320,1056
1.0340,1312
1.0360,1104
1.0380,1184
1.0400,1056
1.0420,880
1.0440,896
1.0460,1072
1.0480,1056
1.0500,1312
1.0520,1104
1.0540,1472
1.0560,992
1.0580,1040
1.0600,1104
1.0620,832
1.0640,1344
1.0660,1264
1.0680,1600
1.0700,992
1.0720,800
1.0740,1424
1.0760,1200
1.0780,1456
1.0800,720
1.0820,1328
1.0840,1072
1.0860,896
1.0880,976
1.0900,864
1.0920,1200
1.0940,1184
1.0960,880
1.0980,1344
1.1000,976
1.1020,976
1.1040,1024
1.1060,832
1.1080,1168
1.1100,1200
1.1120,976
1.1140,1104
1.1160,896
1.1180,1360
1.1200,1104
1.1220,1120
1.1240,1152
1.1260,1120
1.1280,1072
1.1300,1056
1.1320,1104
1.1340,1120
1.1360,1664
1.1380,944
1.1400,1264
1.1420,752
1.1440,704
1.1460,1264
1.1480,1280
1.1500,1152
1.1520,1840
1.1540,992
1.1560,1216
1.1580,1328
1.1600,1168
1.1620,1120
1.1640,1056
1.1660,752
1.1680,1024
1.1700,1536
1.1720,1856
1.1740,1248
1.1760,1200
1.1780,1248
1.1800,960
1.1820,1488
1.1840,944
1.1860,1296
1.1880,1072
1.1900,800
1.1920,944
1.1940,1216
1.1960,1120
1.1980,1104
1.2000,1168
1.2020,1152
1.2040,1136
1.2060,944
1.2080,1040
1.2100,1056
1.2120,1184
1.2140,752
1.2160,912
1.2180,960
1.2200,912
1.2220,1104
1.2240,1584
1.2260,912
1.2280,1920
1.2300,1184
1.2320,1072
1.2340,1264
1.2360,1632
1.2380,1024
1.2400,768
1.2420,1008
1.2440,1232
1.2460,1088
1.2480,944
1.2500,1120
1.2520,1296
1.2540,1312
1.2560,1200
1.2580,1232
1.2600,1136
1.2620,1408
1.2640,896
1.2660,1344
1.2680,1216
1.2700,1824
1.2720,1152
1.2740,1120
1.2760,1024
1.2780,1328
1.2800,928
1.2820,912
1.2840,864
1.2860,1632
1.2880,912
1.2900,832
1.2920,1072
1.2940,1200
1.2960,1536
1.2980,1584
1.3000,1408
1.3020,1216
1.3040,1056
1.3060,704
1.3080,1792
1.3100,944
1.3120,864
1.3140,1280
1.3160,1184
1.3180,1408
1.3200,896
1.3220,1280
1.3240,1152
1.3260,1232
1.3280,896
1.3300,1664
1.3320,880
1.3340,1216
1.3360,976
1.3380,1184
1.3400,1168
1.3420,816
1.3440,1152
1.3460,1248
1.3480,1232
1.3500,1312
1.3520,1904
1.3540,1104
1.3560,800
1.3580,896
1.3600,992
1.3620,1424
1.3640,1088
1.3660,1104
1.3680,1488
1.3700,1248
1.3720,1104
1.3740,848
1.3760,976
1.3780,1424
1.3800,1328
1.3820,1024
1.3840,1424
1.3860,1312
1.3880,1328
1.3900,1376
1.3920,1376
1.3940,816
1.3960,976
1.3980,1280
1.4000,1376
1.4020,1488
1.4040,768
1.4060,1088
1.4080,784
1.4100,832
1.4120,1184
1.4140,1232
1.4160,1312
1.4180,1184
1.4200,736
1.4220,672
1.4240,944
1.4260,1200
1.4280,896
1.4300,1536
1.4320,1392
1.4340,1056
1.4360,1024
1.4380,1712
1.4400,1216
1.4420,1312
1.4440,896
1.4460,1200
1.4480,1248
1.4500,1008
1.4520,1472
1.4540,992
1.4560,1264
1.4580,928
1.4600,1280
1.4620,928
1.4640,1312
1.4660,928
1.4680,1584
1.4700,1344
1.4720,1088
1.4740,1168
1.4760,1056
1.4780,1168
1.4800,960
1.4820,1056
1.4840,1152
1.4860,1328
1.4880,1056
1.4900,1168
1.4920,1248
1.4940,1072
1.4960,752
1.4980,944
1.5000,1328
1.5020,912
1.5040,1120
1.5060,976
1.5080,1456
1.5100,1104
1.5120,1232
1.5140,1456
1.5160,912
1.5180,2096
1.5200,1232
1.5220,928
1.5240,1184
1.5260,976
1.5280,1152
1.5300,848
1.5320,1248
1.5340,1712
1.5360,1152
1.5380,1232
1.5400,1696
1.5420,1424
1.5440,992
1.5460,1040
1.5480,1360
1.5500,1328
1.5520,1200
1.5540,832
1.5560,1152
1.5580,800
1.5600,832
1.5620,1360
1.5640,816
1.5660,1392
1.5680,1536
1.5700,1056
1.5720,1056
1.5740,704
1.5760,1376
1.5780,672
1.5800,1216
1.5820,1872
1.5840,1056
1.5860,896
1.5880,1568
1.5900,1104
1.5920,816
1.5940,848
1.5960,1312
1.5980,848
1.6000,1216
1.6020,1328
1.6040,1344
1.6060,960
1.6080,992
1.6100,1744
1.6120,1248
1.6140,1280
1.6160,1280
1.6180,704
1.6200,1184
1.6220,864
1.6240,1376
1.6260,864
1.6280,1168
1.6300,832
1.6320,912
1.6340,1696
1.6360,816
1.6380,1056
1.6400,656
1.6420,816
1.6440,1280
1.6460,1168
1.6480,960
1.6500,1120
1.6520,1488
1.6540,1168
1.6560,1072
1.6580,912
1.6600,1008
1.6620,1120
1.6640,880
1.6660,800
1.6680,1616
1.6700,1184
1.6720,1056
1.6740,1328
1.6760,1152
1.6780,1216
1.6800,1360
1.6820,848
1.6840,1024
1.6860,1232
1.6880,1184
1.6900,944
1.6920,848
1.6940,992
1.6960,992
1.6980,1024
1.7000,1184
1.7020,1120
1.7040,1136
1.7060,1184
1.7080,1120
1.7100,1184
1.7120,1312
1.7140,1056
1.7160,1632
1.7180,1328
1.7200,832
1.7220,1152
1.7240,1120
1.7260,1072
1.7280,816
1.7300,800
1.7320,1184
1.7340,1376
1.7360,1232
1.7380,1056
1.7400,720
1.7420,1312
1.7440,1664
1.7460,1296
1.7480,1072
1.7500,1312
1.7520,896
1.7540,1168
1.7560,976
1.7580,784
1.7600,1296
1.7620,976
1.7640,912
1.7660,464
1.7680,1424
1.7700,1008
1.7720,896
1.7740,864
1.7760,736
1.7780,1296
1.7800,1248
1.7820,1216
1.7840,1120
1.7860,784
1.7880,1424
1.7900,768
1.7920,1056
1.7940,1440
1.7960,1120
1.7980,1104
1.8000,1072
1.8020,944
1.8040,944
1.8060,1008
1.8080,832
1.8100,784
1.8120,896
1.8140,736
1.8160,1312
1.8180,768
1.8200,1424
1.8220,864
1.8240,928
1.8260,1104
1.8280,1280
1.8300,1088
1.8320,976
1.8340,1280
1.8360,1280
1.8380,1280
1.8400,1168
1.8420,944
1.8440,1056
1.8460,1072
1.8480,992
1.8500,1232
1.8520,1408
1.8540,1056
1.8560,976
1.8580,1072
1.8600,880
1.8620,976
1.8640,800
1.8660,1264
1.8680,1024
1.8700,1168
1.8720,704
1.8740,944
1.8760,1472
1.8780,1120
1.8800,1296
1.8820,1152
1.8840,864
1.8860,1664
1.8880,912
1.8900,1120
1.8920,912
1.8940,1824
1.8960,1504
1.8980,1232
1.9000,1104
1.9020,1168
1.9040,1296
1.9060,1168
1.9080,784
1.9100,832
1.9120,864
1.9140,976
1.9160,864
1.9180,1152
1.9200,1184
1.9220,1136
1.9240,1296
1.9260,800
1.9280,1056
1.9300,1200
1.9320,1152
1.9340,1232
1.9360,1472
1.9380,1328
1.9400,992
1.9420,864
1.9440,1168
1.9460,896
1.9480,1216
1.9500,1344
1.9520,1376
1.9540,1280
1.9560,1888
1.9580,864
1.9600,960
1.9620,1104
1.9640,1216
1.9660,1104
1.9680,1216
1.9700,1056
1.9720,800
1.9740,912
1.9760,1152
1.9780,768
1.9800,1328
1.9820,1568
1.9840,1216
1.9860,816
1.9880,896
1.9900,1232
1.9920,928
1.9940,976
1.9960,816
1.9980,704
2.0000,1872
2.0020,1088
2.0040,1232
2.0060,1376
2.0080,688
2.0100,1424
2.0120,800
2.0140,1184
2.0160,896
2.0180,1280
2.0200,1280
2.0220,1312
2.0240,816
2.0260,1072
2.0280,1968
2.0300,1344
2.0320,1920
2.0340,1168
2.0360,1296
2.0380,1040
2.0400,1088
2.0420,1168
2.0440,688
2.0460,832
2.0480,1024
2.0500,1248
2.0520,1056
2.0540,912
2.0560,1280
2.0580,768
2.0600,1040
2.0620,1248
2.0640,1296
2.0660,1328
2.0680,1120
2.0700,928
2.0720,704
2.0740,1040
2.0760,928
2.0780,1184
2.0800,960
2.0820,1168
2.0840,1488
2.0860,1024
2.0880,768
2.0900,1200
2.0920,1008
2.0940,1104
2.0960,1280
2.0980,1152
2.1000,1952
2.1020,1184
2.1040,1440
2.1060,1200
2.1080,960
2.1100,1216
2.1120,1056
2.1140,928
2.1160,1152
2.1180,1376
2.1200,800
2.1220,960
2.1240,1664
2.1260,1696
2.1280,1392
2.1300,1760
2.1320,1952
2.1340,992
2.1360,1216
2.1380,848
2.1400,1120
2.1420,1232
2.1440,960
2.1460,1040
2.1480,720
2.1500,944
2.1520,688
2.1540,1104
2.1560,1376
2.1580,864
2.1600,1040
2.1620,1104
2.1640,1072
2.1660,1152
2.1680,1152
2.1700,1104
2.1720,1056
2.1740,1056
2.1760,848
2.1780,784
2.1800,832
2.1820,1232
2.1840,896
2.1860,1344
2.1880,992
2.1900,960
2.1920,1216
2.1940,896
2.1960,1616
2.1980,1696
2.2000,1664
2.2020,1360
2.2040,1296
2.2060,1440
2.2080,1216
2.2100,912
2.2120,720
2.2140,1168
2.2160,1216
2.2180,1216
2.2200,1376
2.2220,1008
2.2240,944
2.2260,944
2.2280,976
2.2300,800
2.2320,1248
2.2340,1584
2.2360,1296
2.2380,1088
2.2400,1392
2.2420,1328
2.2440,1104
2.2460,1056
2.2480,1280
2.2500,1152
2.2520,944
2.2540,1072
2.2560,1152
2.2580,992
2.2600,1456
2.2620,1600
2.2640,1056
2.2660,1760
2.2680,928
2.2700,928
2.2720,848
2.2740,928
2.2760,880
2.2780,816
2.2800,896
2.2820,1024
2.2840,912
2.2860,1216
2.2880,960
2.2900,1072
2.2920,832
2.2940,928
2.2960,848
2.2980,1520
2.3000,1200
2.3020,912
2.3040,1472
2.3060,864
2.3080,1232
2.3100,1216
2.3120,1248
2.3140,1024
2.3160,1360
2.3180,1280
2.3200,1664
2.3220,1104
2.3240,1280
2.3260,1040
2.3280,1152
2.3300,1536
2.3320,944
2.3340,1216
2.3360,1072
2.3380,1040
2.3400,1104
2.3420,832
2.3440,1248
2.3460,1216
2.3480,1168
2.3500,1040
2.3520,1456
2.3540,1280
2.3560,992
2.3580,1232
2.3600,1200
2.3620,1120
2.3640,848
2.3660,1040
2.3680,992
2.3700,1184
2.3720,1104
2.3740,1104
2.3760,816
2.3780,944
2.3800,1200
2.3820,1104
2.3840,928
2.3860,992
2.3880,1376
2.3900,1152
2.3920,1296
2.3940,1168
2.3960,1024
2.3980,1568
2.4000,1152
2.4020,928
2.4040,1088
2.4060,1184
2.4080,1360
2.4100,928
2.4120,1376
2.4140,912
2.4160,944
2.4180,1312
2.4200,1216
2.4220,1184
2.4240,944
2.4260,1472
2.4280,1040
2.4300,1056
2.4320,1104
2.4340,1088
2.4360,1104
2.4380,928
2.4400,1056
2.4420,944
2.4440,1040
2.4460,1040
2.4480,1168
2.4500,2096
2.4520,1584
2.4540,928
2.4560,976
2.4580,1184
2.4600,1344
2.4620,1280
2.4640,1280
2.4660,976
2.4680,1056
2.4700,1024
2.4720,1296
2.4740,960
2.4760,1072
2.4780,928
2.4800,832
2.4820,1264
2.4840,864
2.4860,1088
2.4880,1232
2.4900,1168
2.4920,992
2.4940,896
2.4960,1056
2.4980,1024
2.5000,1344
2.5020,1088
2.5040,912
2.5060,944
2.5080,1184
2.5100,1280
2.5120,1184
2.5140,928
2.5160,1168
2.5180,1184
2.5200,1328
2.5220,1040
2.5240,1072
2.5260,1152
2.5280,1120
2.5300,1184
2.5320,1472
2.5340,1120
2.5360,1056
2.5380,1184
2.5400,1248
2.5420,976
2.5440,784
2.5460,912
2.5480,960
2.5500,1152
2.5520,832
2.5540,1072
2.5560,928
2.5580,832
2.5600,960
2.5620,1056
2.5640,1056
2.5660,1152
2.5680,1040
2.5700,1248
2.5720,1168
2.5740,1360
2.5760,1360
2.5780,1296
2.5800,1328
2.5820,1072
2.5840,2320
2.5860,1056
2.5880,896
2.5900,896
2.5920,1168
2.5940,1424
2.5960,1184
2.5980,1104
2.6000,1072
2.6020,976
2.6040,1104
2.6060,736
2.6080,960
2.6100,1024
2.6120,736
2.6140,1024
2.6160,1232
2.6180,1216
2.6200,1168
2.6220,1056
2.6240,1312
2.6260,816
2.6280,928
2.6300,1312
2.6320,1216
2.6340,1568
2.6360,816
2.6380,1328
2.6400,1184
2.6420,1072
2.6440,1104
2.6460,832
2.6480,944
2.6500,1216
2.6520,1312
2.6540,1568
2.6560,1472
2.6580,1120
2.6600,1232
2.6620,688
2.6640,896
2.6660,1168
2.6680,1088
2.6700,1184
2.6720,1152
2.6740,1568
2.6760,1024
2.6780,1120
2.6800,912
2.6820,1248
2.6840,1664
2.6860,944
2.6880,1264
2.6900,1024
2.6920,912
2.6940,1664
2.6960,2432
2.6980,1088
2.7000,1312
2.7020,1104
2.7040,880
2.7060,960
2.7080,1344
2.7100,1056
2.7120,992
2.7140,736
2.7160,832
2.7180,1248
2.7200,1360
2.7220,976
2.7240,992
2.7260,1120
2.7280,1056
2.7300,1408
2.7320,848
2.7340,1120
2.7360,1216
2.7380,992
2.7400,1024
2.7420,1440
2.7440,784
2.7460,976
2.7480,1152
2.7500,976
2.7520,1280
2.7540,784
2.7560,1360
2.7580,1408
2.7600,1152
2.7620,1376
2.7640,912
2.7660,1360
2.7680,960
2.7700,1328
2.7720,1184
2.7740,1056
2.7760,672
2.7780,1216
2.7800,1296
2.7820,736
2.7840,1536
2.7860,1216
2.7880,1552
2.7900,1840
2.7920,992
2.7940,1360
2.7960,1280
2.7980,1856
2.8000,1440
2.8020,1296
2.8040,1152
2.8060,1024
2.8080,688
2.8100,3296
2.8120,1152
2.8140,928
2.8160,1600
2.8180,896
2.8200,1424
2.8220,864
2.8240,1120
2.8260,1632
2.8280,1056
2.8300,1248
2.8320,1840
2.8340,1328
2.8360,1600
2.8380,1504
2.8400,1312
2.8420,1328
2.8440,896
2.8460,1024
2.8480,848
2.8500,1312
2.8520,1232
2.8540,832
2.8560,1216
2.8580,1232
2.8600,1104
2.8620,784
2.8640,752
2.8660,720
2.8680,1472
2.8700,1488
2.8720,1824
2.8740,976
2.8760,1056
2.8780,976
2.8800,800
2.8820,960
2.8840,1424
2.8860,1088
2.8880,848
2.8900,864
2.8920,912
2.8940,1168
2.8960,992
2.8980,1056
2.9000,1408
2.9020,1456
2.9040,832
2.9060,1344
2.9080,880
2.9100,928
2.9120,1312
2.9140,1440
2.9160,992
2.9180,976
2.9200,1216
2.9220,1088
2.9240,1296
2.9260,784
2.9280,896
2.9300,1136
2.9320,1248
2.9340,1664
2.9360,1056
2.9380,1632
2.9400,976
2.9420,1072
2.9440,1072
2.9460,1184
2.9480,800
2.9500,1072
2.9520,960
2.9540,1168
2.9560,1280
2.9580,752
2.9600,1280
2.9620,944
2.9640,736
2.9660,1120
2.9680,960
2.9700,1248
2.9720,784
2.9740,1344
2.9760,2144
2.9780,1184
2.9800,784
2.9820,1408
2.9840,1184
2.9860,1328
2.9880,992
2.9900,1104
2.9920,1184
2.9940,960
2.9960,1136
2.9980,1232
3.0000,912
3.0020,1232
3.0040,992
3.0060,1584
3.0080,1856
3.0100,1152
3.0120,800
3.0140,1280
3.0160,1120
3.0180,1568
3.0200,1296
3.0220,1472
3.0240,1328
3.0260,784
3.0280,1088
3.0300,912
3.0320,1536
3.0340,1344
3.0360,1040
3.0380,1008
3.0400,1328
3.0420,1312
3.0440,1024
3.0460,1328
3.0480,768
3.0500,848
3.0520,1792
3.0540,1280
3.0560,992
3.0580,1248
3.0600,976
3.0620,992
3.0640,736
3.0660,1200
3.0680,1056
3.0700,864
3.0720,1696
3.0740,1104
3.0760,944
3.0780,992
3.0800,992
3.0820,1696
3.0840,704
3.0860,1376
3.0880,1056
3.0900,1248
3.0920,1040
3.0940,992
3.0960,912
3.0980,1040
3.1000,1024
3.1020,1584
3.1040,1024
3.1060,1024
3.1080,1120
3.1100,1120
3.1120,944
3.1140,1248
3.1160,1376
3.1180,720
3.1200,1296
3.1220,736
3.1240,784
3.1260,1248
3.1280,1328
3.1300,976
3.1320,1200
3.1340,1024
3.1360,1344
3.1380,928
3.1400,1056
3.1420,1136
3.1440,1296
3.1460,944
3.1480,1232
3.1500,1056
3.1520,1152
3.1540,1552
3.1560,1344
3.1580,784
3.1600,944
3.1620,1760
3.1640,1952
3.1660,1280
3.1680,1152
3.1700,1280
3.1720,1200
3.1740,1040
3.1760,848
3.1780,960
3.1800,944
3.1820,736
3.1840,1744
3.1860,1232
3.1880,848
3.1900,928
3.1920,1232
3.1940,1232
3.1960,1104
3.1980,1216
3.2000,1248
3.2020,1056
3.2040,1184
3.2060,960
3.2080,1104
3.2100,928
3.2120,1328
3.2140,896
3.2160,1072
3.2180,1136
3.2200,1184
3.2220,1344
3.2240,1568
3.2260,976
3.2280,896
3.2300,1344
3.2320,1184
3.2340,992
3.2360,1472
3.2380,896
3.2400,1584
3.2420,896
3.2440,1184
3.2460,928
3.2480,1216
3.2500,1632
3.2520,1296
3.2540,896
3.2560,1200
3.2580,832
3.2600,1360
3.2620,1328
3.2640,1056
3.2660,976
3.2680,1312
3.2700,1264
3.2720,1152
3.2740,1024
3.2760,1152
3.2780,1216
3.2800,992
3.2820,992
3.2840,1216
3.2860,848
3.2880,1104
3.2900,1328
3.2920,896
3.2940,1200
3.2960,608
3.2980,752
3.3000,1568
3.3020,1168
3.3040,1088
3.3060,1312
3.3080,992
3.3100,1184
3.3120,1104
3.3140,1312
3.3160,1456
3.3180,944
3.3200,1504
3.3220,1200
3.3240,928
3.3260,1280
3.3280,1536
3.3300,944
3.3320,1120
3.3340,1280
3.3360,1248
3.3380,1120
3.3400,848
3.3420,1040
3.3440,1152
3.3460,1216
3.3480,848
3.3500,1408
3.3520,1424
3.3540,1072
3.3560,976
3.3580,1152
3.3600,896
3.3620,1168
3.3640,1296
3.3660,1216
3.3680,1072
3.3700,1072
3.3720,1216
3.3740,1088
3.3760,816
3.3780,880
3.3800,1360
3.3820,1408
3.3840,1344
3.3860,896
3.3880,1120
3.3900,720
3.3920,1360
3.3940,1168
3.3960,1056
3.3980,1184
3.4000,1152
3.4020,976
3.4040,1104
3.4060,1792
3.4080,736
3.4100,848
3.4120,1040
3.4140,1360
3.4160,1104
3.4180,1280
3.4200,1216
3.4220,1296
3.4240,992
3.4260,848
3.4280,672
3.4300,1088
3.4320,1088
3.4340,1232
3.4360,1408
3.4380,1280
3.4400,1024
3.4420,1104
3.4440,1184
3.4460,992
3.4480,1120
3.4500,1168
3.4520,1104
3.4540,1136
3.4560,1264
3.4580,864
3.4600,928
3.4620,912
3.4640,976
3.4660,1232
3.4680,928
3.4700,1632
3.4720,1040
3.4740,1184
3.4760,976
3.4780,1104
3.4800,1040
3.4820,1552
3.4840,1232
3.4860,1536
3.4880,944
3.4900,1056
3.4920,1344
3.4940,1120
3.4960,1504
3.4980,800
3.5000,864
3.5020,1056
3.5040,1008
3.5060,1088
3.5080,1136
3.5100,1296
3.5120,1088
3.5140,1824
3.5160,2064
3.5180,1072
3.5200,1216
3.5220,800
3.5240,1184
3.5260,1424
3.5280,1168
3.5300,1024
3.5320,736
3.5340,1168
3.5360,1424
3.5380,944
3.5400,768
3.5420,1424
3.5440,1040
3.5460,1248
3.5480,1472
3.5500,880
3.5520,1216
3.5540,912
3.5560,1008
3.5580,1200
3.5600,1312
3.5620,976
3.5640,2064
3.5660,1344
3.5680,1120
3.5700,1088
3.5720,1024
3.5740,848
3.5760,1024
3.5780,960
3.5800,1152
3.5820,800
3.5840,1712
3.5860,896
3.5880,848
3.5900,1120
3.5920,848
3.5940,992
3.5960,784
3.5980,1152
3.6000,1072
3.6020,1216
3.6040,896
3.6060,1168
3.6080,1408
3.6100,816
3.6120,976
3.6140,1424
3.6160,864
3.6180,1456
3.6200,1328
3.6220,944
3.6240,1264
3.6260,1200
3.6280,928
3.6300,1424
3.6320,912
3.6340,1120
3.6360,1632
3.6380,1424
3.6400,1424
3.6420,896
3.6440,1184
3.6460,800
3.6480,1040
3.6500,1024
3.6520,1024
3.6540,1504
3.6560,864
3.6580,992
3.6600,816
3.6620,880
3.6640,1296
3.6660,1072
3.6680,1088
3.6700,1072
3.6720,1296
3.6740,1264
3.6760,992
3.6780,1344
3.6800,1248
3.6820,1168
3.6840,1488
3.6860,1392
3.6880,1152
3.6900,848
3.6920,672
3.6940,864
3.6960,1168
3.6980,1024
3.7000,992
3.7020,1424
3.7040,1536
3.7060,944
3.7080,976
3.7100,1024
3.7120,1184
3.7140,1296
3.7160,1488
3.7180,1200
3.7200,944
3.7220,1296
3.7240,848
3.7260,992
3.7280,992
3.7300,1040
3.7320,960
3.7340,1152
3.7360,1296
3.7380,928
3.7400,960
3.7420,1088
3.7440,784
3.7460,800
3.7480,1040
3.7500,960
3.7520,928
3.7540,1376
3.7560,1152
3.7580,816
3.7600,944
3.7620,912
3.7640,1104
3.7660,1232
3.7680,800
3.7700,1216
3.7720,704
3.7740,672
3.7760,1280
3.7780,1216
3.7800,768
3.7820,1456
3.7840,1440
3.7860,1312
3.7880,1216
3.7900,800
3.7920,912
3.7940,848
3.7960,1184
3.7980,1168
3.8000,1344
3.8020,1040
3.8040,1024
3.8060,1056
3.8080,1296
3.8100,1104
3.8120,1120
3.8140,1088
3.8160,1696
3.8180,1216
3.8200,832
3.8220,1040
3.8240,1280
3.8260,816
3.8280,688
3.8300,784
3.8320,1296
3.8340,1424
3.8360,1408
3.8380,912
3.8400,1168
3.8420,1184
3.8440,1200
3.8460,1104
3.8480,864
3.8500,1664
3.8520,1728
3.8540,1200
3.8560,928
3.8580,640
3.8600,1488
3.8620,1376
3.8640,1104
3.8660,928
3.8680,800
3.8700,912
3.8720,1184
3.8740,928
3.8760,1296
3.8780,1312
3.8800,736
3.8820,1440
3.8840,864
3.8860,1296
3.8880,1232
3.8900,944
3.8920,928
3.8940,1008
3.8960,640
3.8980,1376
3.9000,832
3.9020,1024
3.9040,1232
3.9060,1232
3.9080,1168
3.9100,1120
3.9120,1232
3.9140,1184
3.9160,848
3.9180,1344
3.9200,1184
3.9220,1088
3.9240,1184
3.9260,960
3.9280,768
3.9300,976
3.9320,992
3.9340,816
3.9360,1568
3.9380,1360
3.9400,1216
3.9420,1824
3.9440,1696
3.9460,1264
3.9480,976
3.9500,912
3.9520,928
3.9540,1280
3.9560,784
3.9580,1088
3.9600,1456
3.9620,1248
3.9640,1216
3.9660,944
3.9680,2048
3.9700,1216
3.9720,944
3.9740,976
3.9760,1040
3.9780,1056
3.9800,1168
3.9820,864
3.9840,1360
3.9860,1232
3.9880,1264
3.9900,1296
3.9920,1008
3.9940,2512
3.9960,1264
3.9980,1648
4.0000,1072
4.0020,1008
4.0040,1296
4.0060,1040
4.0080,1072
4.0100,1376
4.0120,912
4.0140,976
4.0160,960
4.0180,1696
4.0200,1104
4.0220,1088
4.0240,1168
4.0260,896
4.0280,832
4.0300,848
4.0320,992
4.0340,1664
4.0360,1776
4.0380,1296
4.0400,1520
4.0420,1968
4.0440,784
4.0460,1152
4.0480,1152
4.0500,1408
4.0520,1120
4.0540,848
4.0560,736
4.0580,768
4.0600,1376
4.0620,1392
4.0640,1152
4.0660,2320
4.0680,1104
4.0700,1248
4.0720,1616
4.0740,752
4.0760,1216
4.0780,1216
4.0800,960
4.0820,1072
4.0840,1056
4.0860,1248
4.0880,1072
4.0900,1376
4.0920,896
4.0940,848
4.0960,944
4.0980,848
4.1000,1200
4.1020,1392
4.1040,992
4.1060,896
4.1080,1232
4.1100,1808
4.1120,1872
4.1140,832
4.1160,1056
4.1180,960
4.1200,1424
4.1220,1056
4.1240,1184
4.1260,976
4.1280,944
4.1300,944
4.1320,1024
4.1340,688
4.1360,1360
4.1380,1168
4.1400,1152
4.1420,992
4.1440,1056
4.1460,944
4.1480,1024
4.1500,864
4.1520,1328
4.1540,1088
4.1560,928
4.1580,1136
4.1600,848
4.1620,832
4.1640,1152
4.1660,1088
4.1680,1232
4.1700,848
4.1720,1568
4.1740,768
4.1760,1232
4.1780,1072
4.1800,1056
4.1820,1216
4.1840,848
4.1860,1200
4.1880,992
4.1900,1376
4.1920,832
4.1940,784
4.1960,816
4.1980,992
4.2000,928
4.2020,1936
4.2040,928
4.2060,1152
4.2080,848
4.2100,1168
4.2120,2048
4.2140,1312
4.2160,1920
4.2180,1552
4.2200,912
4.2220,1616
4.2240,1664
4.2260,1760
4.2280,1248
4.2300,1184
4.2320,1152
4.2340,2048
4.2360,1040
4.2380,832
4.2400,1056
4.2420,704
4.2440,848
4.2460,960
4.2480,1568
4.2500,800
4.2520,768
4.2540,1296
4.2560,1248
4.2580,1200
4.2600,1200
4.2620,1152
4.2640,976
4.2660,1024
4.2680,1072
4.2700,1328
4.2720,816
4.2740,960
4.2760,1216
4.2780,1120
4.2800,864
4.2820,1984
4.2840,1440
4.2860,1376
4.2880,1088
4.2900,1264
4.2920,944
4.2940,1184
4.2960,864
4.2980,896
4.3000,1200
4.3020,1312
4.3040,1376
4.3060,1152
4.3080,1168
4.3100,1376
4.3120,1216
4.3140,1248
4.3160,1200
4.3180,1600
4.3200,944
4.3220,896
4.3240,960
4.3260,880
4.3280,1248
4.3300,1344
4.3320,1696
4.3340,1104
4.3360,1616
4.3380,1120
4.3400,976
4.3420,1488
4.3440,1136
4.3460,944
4.3480,960
4.3500,1216
4.3520,1456
4.3540,1008
4.3560,736
4.3580,1120
4.3600,784
4.3620,1248
4.3640,1200
4.3660,720
4.3680,816
4.3700,1216
4.3720,800
4.3740,816
4.3760,1104
4.3780,896
4.3800,832
4.3820,1040
4.3840,832
4.3860,1312
4.3880,1296
4.3900,1216
4.3920,976
4.3940,816
4.3960,1232
4.3980,1200
4.4000,864
4.4020,1040
4.4040,1024
4.4060,1168
4.4080,1200
4.4100,832
4.4120,1072
4.4140,1216
4.4160,1248
4.4180,1040
4.4200,1248
4.4220,896
4.4240,1024
4.4260,864
4.4280,1024
4.4300,816
4.4320,1296
4.4340,1568
4.4360,1152
4.4380,1184
4.4400,1088
4.4420,848
4.4440,1200
4.4460,1280
4.4480,1088
4.4500,800
4.4520,1440
4.4540,976
4.4560,1136
4.4580,752
4.4600,880
4.4620,1168
4.4640,1104
4.4660,1136
4.4680,912
4.4700,1232
4.4720,1264
4.4740,1408
4.4760,672
4.4780,1184
4.4800,896
4.4820,1344
4.4840,928
4.4860,800
4.4880,1248
4.4900,1504
4.4920,1472
4.4940,960
4.4960,1120
4.4980,1216
4.5000,944
4.5020,912
4.5040,1360
4.5060,1120
4.5080,1472
4.5100,1440
4.5120,1600
4.5140,1792
4.5160,1776
4.5180,1488
4.5200,1456
4.5220,1120
4.5240,1264
4.5260,816
4.5280,736
4.5300,1296
4.5320,912
4.5340,944
4.5360,1024
4.5380,1136
4.5400,976
4.5420,704
4.5440,1040
4.5460,880
4.5480,992
4.5500,1248
4.5520,1264
4.5540,816
4.5560,992
4.5580,1136
4.5600,1200
4.5620,1120
4.5640,912
4.5660,944
4.5680,1120
4.5700,1488
4.5720,928
4.5740,736
4.5760,864
4.5780,912
4.5800,1136
4.5820,1024
4.5840,1488
4.5860,1232
4.5880,1424
4.5900,944
4.5920,768
4.5940,1232
4.5960,1312
4.5980,912
4.6000,1344
4.6020,1200
4.6040,1168
4.6060,992
4.6080,896
4.6100,1424
4.6120,720
4.6140,1040
4.6160,928
4.6180,800
4.6200,1984
4.6220,1168
4.6240,768
4.6260,784
4.6280,768
4.6300,1184
4.6320,720
4.6340,1040
4.6360,1744
4.6380,896
4.6400,1216
4.6420,1072
4.6440,1312
4.6460,944
4.6480,1024
4.6500,1216
4.6520,912
4.6540,1248
4.6560,1200
4.6580,720
4.6600,880
4.6620,1248
4.6640,1376
4.6660,1152
4.6680,816
4.6700,928
4.6720,1072
4.6740,1344
4.6760,1040
4.6780,848
4.6800,1472
4.6820,720
4.6840,880
4.6860,944
4.6880,1088
4.6900,1024
4.6920,896
4.6940,1040
4.6960,1184
4.6980,1264
4.7000,1088
4.7020,1296
4.7040,848
4.7060,1200
4.7080,1120
4.7100,1056
4.7120,1472
4.7140,1184
4.7160,1200
4.7180,1104
4.7200,1376
4.7220,1088
4.7240,1136
4.7260,864
4.7280,736
4.7300,720
4.7320,1392
4.7340,832
4.7360,1040
4.7380,1248
4.7400,1088
4.7420,1200
4.7440,816
4.7460,1056
4.7480,1440
4.7500,992
4.7520,1248
4.7540,1040
4.7560,1104
4.7580,864
4.7600,960
4.7620,816
4.7640,832
4.7660,1312
4.7680,1328
4.7700,1040
4.7720,1168
4.7740,944
4.7760,896
4.7780,896
4.7800,992
4.7820,1168
4.7840,1088
4.7860,1184
4.7880,832
4.7900,976
4.7920,480
4.7940,1568
4.7960,1168
4.7980,1040
4.8000,1392
4.8020,1200
4.8040,928
4.8060,704
4.8080,784
4.8100,896
4.8120,976
4.8140,1472
4.8160,768
4.8180,1328
4.8200,912
4.8220,1152
4.8240,1104
4.8260,1184
4.8280,1168
4.8300,1072
4.8320,1520
4.8340,1360
4.8360,1408
4.8380,1056
4.8400,896
4.8420,1168
4.8440,1104
4.8460,1360
4.8480,1504
4.8500,848
4.8520,1488
4.8540,1104
4.8560,1360
4.8580,1104
4.8600,1504
4.8620,1152
4.8640,1040
4.8660,1280
4.8680,1024
4.8700,1168
4.8720,1024
4.8740,1248
4.8760,928
4.8780,960
4.8800,816
4.8820,1312
4.8840,1072
4.8860,1184
4.8880,928
4.8900,1120
4.8920,1248
4.8940,976
4.8960,896
4.8980,944
4.9000,864
4.9020,1216
4.9040,976
4.9060,1152
4.9080,1280
4.9100,1248
4.9120,1200
4.9140,1264
4.9160,976
4.9180,1312
4.9200,1696
4.9220,1488
4.9240,1232
4.9260,1408
4.9280,1248
4.9300,1344
4.9320,1376
4.9340,960
4.9360,896
4.9380,896
4.9400,992
4.9420,1584
4.9440,832
4.9460,1088
4.9480,1440
4.9500,1056
4.9520,1184
4.9540,864
4.9560,688
4.9580,992
4.9600,720
4.9620,880
4.9640,1232
4.9660,1200
4.9680,1344
4.9700,1552
4.9720,1472
4.9740,1184
4.9760,1088
4.9780,912
4.9800,1008
4.9820,1088
4.9840,1088
4.9860,1504
4.9880,1104
4.9900,1216
4.9920,1296
4.9940,1184
4.9960,1024
4.9980,1568
5.0000,992
5.0020,1184
5.0040,1152
5.0060,1216
5.0080,1248
5.0100,1280
5.0120,912
5.0140,1408
5.0160,912
5.0180,1280
5.0200,992
5.0220,1072
5.0240,928
5.0260,768
5.0280,912
5.0300,928
5.0320,1056
5.0340,976
5.0360,1296
5.0380,912
5.0400,720
5.0420,1120
5.0440,1152
5.0460,1152
5.0480,976
5.0500,1472
5.0520,816
5.0540,928
5.0560,976
5.0580,1296
5.0600,1328
5.0620,1200
5.0640,1536
5.0660,784
5.0680,1312
5.0700,1040
5.0720,1040
5.0740,864
5.0760,1088
5.0780,1152
5.0800,1296
5.0820,1040
5.0840,1040
5.0860,1536
5.0880,976
5.0900,816
5.0920,784
5.0940,528
5.0960,1216
5.0980,1168
5.1000,1360
5.1020,1584
5.1040,1152
5.1060,848
5.1080,1040
5.1100,784
5.1120,1024
5.1140,944
5.1160,1200
5.1180,992
5.1200,1040
5.1220,1120
5.1240,1328
5.1260,1136
5.1280,848
5.1300,704
5.1320,928
5.1340,1152
5.1360,1424
5.1380,1168
5.1400,944
5.1420,1024
5.1440,736
5.1460,832
5.1480,1104
5.1500,1232
5.1520,1088
5.1540,1504
5.1560,1600
5.1580,848
5.1600,1216
5.1620,848
5.1640,944
5.1660,1616
5.1680,1280
5.1700,992
5.1720,1408
5.1740,784
5.1760,1056
5.1780,1056
5.1800,1168
5.1820,1136
5.1840,976
5.1860,1136
5.1880,1264
5.1900,1120
5.1920,720
5.1940,816
5.1960,1312
5.1980,928
5.2000,1120
5.2020,1072
5.2040,1072
5.2060,768
5.2080,1264
5.2100,1168
5.2120,1248
5.2140,976
5.2160,1200
5.2180,864
5.2200,1184
5.2220,1184
5.2240,720
5.2260,832
5.2280,1216
5.2300,848
5.2320,832
5.2340,912
5.2360,1040
5.2380,816
5.2400,832
5.2420,1584
5.2440,928
5.2460,768
5.2480,864
5.2500,1120
5.2520,1184
5.2540,1408
5.2560,960
5.2580,1168
5.2600,1296
5.2620,560
5.2640,2000
5.2660,1456
5.2680,1088
5.2700,1152
5.2720,720
5.2740,832
5.2760,928
5.2780,1232
5.2800,960
5.2820,1328
5.2840,1232
5.2860,1472
5.2880,1056
5.2900,1168
5.2920,1072
5.2940,1184
5.2960,1088
5.2980,1248
5.3000,960
5.3020,1200
5.3040,1280
5.3060,1120
5.3080,768
5.3100,1104
5.3120,1040
5.3140,1408
5.3160,1216
5.3180,1360
5.3200,1408
5.3220,1328
5.3240,768
5.3260,928
5.3280,960
5.3300,1024
5.3320,1280
5.3340,1168
5.3360,1168
5.3380,1152
5.3400,1168
5.3420,736
5.3440,992
5.3460,1168
5.3480,688
5.3500,1360
5.3520,1152
5.3540,1552
5.3560,848
5.3580,944
5.3600,1040
5.3620,848
5.3640,1088
5.3660,1040
5.3680,960
5.3700,1088
5.3720,880
5.3740,736
5.3760,832
5.3780,1072
5.3800,1120
5.3820,896
5.3840,1440
5.3860,896
5.3880,1296
5.3900,1056
5.3920,1152
5.3940,1024
5.3960,1280
5.3980,1024
5.4000,928
5.4020,1264
5.4040,1232
5.4060,896
5.4080,880
5.4100,544
5.4120,1760
5.4140,1840
5.4160,1072
5.4180,1360
5.4200,1440
5.4220,672
5.4240,1200
5.4260,1344
5.4280,960
5.4300,848
5.4320,1184
5.4340,1248
5.4360,1360
5.4380,880
5.4400,1280
5.4420,1344
5.4440,1328
5.4460,1024
5.4480,1152
5.4500,1184
5.4520,1296
5.4540,1616
5.4560,1152
5.4580,864
5.4600,1088
5.4620,896
5.4640,928
5.4660,1168
5.4680,1504
5.4700,1504
5.4720,1312
5.4740,864
5.4760,1184
5.4780,400
5.4800,1360
5.4820,736
5.4840,1184
5.4860,1424
5.4880,1200
5.4900,1152
5.4920,816
5.4940,1248
5.4960,1056
5.4980,992
5.5000,1680
5.5020,1504
5.5040,1216
5.5060,1376
5.5080,896
5.5100,1072
5.5120,944
5.5140,1312
5.5160,1184
5.5180,1200
5.5200,1408
5.5220,1296
5.5240,800
5.5260,768
5.5280,1280
5.5300,1216
5.5320,1200
5.5340,1312
5.5360,1280
5.5380,1104
5.5400,1072
5.5420,768
5.5440,848
5.5460,1280
5.5480,1184
5.5500,1312
5.5520,1296
5.5540,848
5.5560,832
5.5580,1376
5.5600,1024
5.5620,1200
5.5640,1264
5.5660,1472
5.5680,960
5.5700,816
5.5720,1200
5.5740,848
5.5760,768
5.5780,1104
5.5800,1296
5.5820,992
5.5840,1216
5.5860,1504
5.5880,1232
5.5900,1184
5.5920,1056
5.5940,1056
5.5960,1216
5.5980,832
5.6000,1216
5.6020,1504
5.6040,912
5.6060,1120
5.6080,928
5.6100,912
5.6120,896
5.6140,1264
5.6160,1344
5.6180,1040
5.6200,896
5.6220,1152
5.6240,1072
5.6260,800
5.6280,960
5.6300,896
5.6320,864
5.6340,1056
5.6360,1392
5.6380,1184
5.6400,896
5.6420,928
5.6440,1136
5.6460,1600
5.6480,896
5.6500,944
5.6520,1280
5.6540,1472
5.6560,1200
5.6580,1312
5.6600,1024
5.6620,944
5.6640,1088
5.6660,1152
5.6680,1024
5.6700,832
5.6720,1120
5.6740,1248
5.6760,704
5.6780,816
5.6800,912
5.6820,896
5.6840,1456
5.6860,1536
5.6880,912
5.6900,1232
5.6920,1152
5.6940,1120
5.6960,1040
5.6980,1472
5.7000,1232
5.7020,1184
5.7040,1152
5.7060,848
5.7080,800
5.7100,1232
5.7120,1120
5.7140,1008
5.7160,1360
5.7180,1376
5.7200,1056
5.7220,896
5.7240,1424
5.7260,736
5.7280,944
5.7300,1328
5.7320,1280
5.7340,1152
5.7360,896
5.7380,1120
5.7400,992
5.7420,1280
5.7440,1024
5.7460,1600
5.7480,1184
5.7500,1088
5.7520,1072
5.7540,816
5.7560,832
5.7580,1168
5.7600,1200
5.7620,1200
5.7640,960
5.7660,928
5.7680,944
5.7700,1280
5.7720,1040
5.7740,1056
5.7760,1456
5.7780,816
5.7800,1696
5.7820,1328
5.7840,1488
5.7860,1072
5.7880,768
5.7900,880
5.7920,1408
5.7940,1104
5.7960,1088
5.7980,1104
5.8000,960
5.8020,1232
5.8040,1488
5.8060,1168
5.8080,816
5.8100,1248
5.8120,1264
5.8140,1344
5.8160,1376
5.8180,1584
5.8200,1328
5.8220,1056
5.8240,928
5.8260,864
5.8280,1296
5.8300,1296
5.8320,1040
5.8340,912
5.8360,1712
5.8380,1216
5.8400,1104
5.8420,1168
5.8440,1200
5.8460,1088
5.8480,1440
5.8500,864
5.8520,2448
5.8540,1440
5.8560,832
5.8580,928
5.8600,1296
5.8620,1120
5.8640,816
5.8660,1232
5.8680,1344
5.8700,992
5.8720,2544
5.8740,912
5.8760,1072
5.8780,928
5.8800,1312
5.8820,1216
5.8840,1024
5.8860,1232
5.8880,1280
5.8900,1104
5.8920,912
5.8940,1616
5.8960,1200
5.8980,944
5.9000,848
5.9020,1120
5.9040,1072
5.9060,816
5.9080,1104
5.9100,1296
5.9120,736
5.9140,1344
5.9160,1488
5.9180,1216
5.9200,1200
5.9220,1136
5.9240,1440
5.9260,960
5.9280,672
5.9300,1120
5.9320,1168
5.9340,4929
5.9360,1328
5.9380,4929
5.9400,2000
5.9420,1200
5.9440,1024
5.9460,1408
5.9480,1712
5.9500,1120
5.9520,1664
5.9540,944
5.9560,1056
5.9580,928
5.9600,1360
5.9620,1424
5.9640,1248
5.9660,976
5.9680,1600
5.9700,1728
5.9720,1280
5.9740,1344
5.9760,1344
5.9780,736
5.9800,736
5.9820,1184
5.9840,816
5.9860,1136
5.9880,1040
5.9900,1280
5.9920,1312
5.9940,1440
5.9960,1120
5.9980,816
6.0000,896
6.0020,1312
6.0040,1216
6.0060,1296
6.0080,832
6.0100,1792
6.0120,1392
6.0140,1488
6.0160,1312
6.0180,784
6.0200,976
6.0220,1040
6.0240,1184
6.0260,1712
6.0280,896
6.0300,1312
6.0320,848
6.0340,1328
6.0360,1808
6.0380,1680
6.0400,1456
6.0420,1184
6.0440,736
6.0460,1648
6.0480,1040
6.0500,992
6.0520,1744
6.0540,1280
6.0560,1072
6.0580,1312
6.0600,1360
6.0620,1200
6.0640,1408
6.0660,1616
6.0680,1280
6.0700,1632
6.0720,1216
6.0740,1040
6.0760,1040
6.0780,1472
6.0800,1072
6.0820,784
6.0840,1312
6.0860,1696
6.0880,1152
6.0900,1168
6.0920,1568
6.0940,1488
6.0960,2240
6.0980,1360
6.1000,1072
6.1020,1072
6.1040,1104
6.1060,1232
6.1080,976
6.1100,1424
6.1120,1296
6.1140,960
6.1160,912
6.1180,816
6.1200,1968
6.1220,1616
6.1240,1344
6.1260,1680
6.1280,1200
6.1300,944
6.1320,1120
6.1340,1120
6.1360,1104
6.1380,960
6.1400,992
6.1420,832
6.1440,1344
6.1460,1984
6.1480,1360
6.1500,1344
6.1520,992
6.1540,1360
6.1560,1280
6.1580,1216
6.1600,1184
6.1620,1056
6.1640,1104
6.1660,1264
6.1680,1168
6.1700,1712
6.1720,1328
6.1740,1232
6.1760,1328
6.1780,4257
6.1800,4993
6.1820,1040
6.1840,1648
6.1860,2224
6.1880,1344
6.1900,768
6.1920,1152
6.1940,1104
6.1960,1152
6.1980,1312
6.2000,1280
6.2020,1376
6.2040,1088
6.2060,1040
6.2080,1664
6.2100,848
6.2120,1280
6.2140,1056
6.2160,1280
6.2180,1232
6.2200,1408
6.2220,1760
6.2240,992
6.2260,2144
6.2280,912
6.2300,1040
6.2320,976
6.2340,1296
6.2360,1392
6.2380,1328
6.2400,1296
6.2420,1168
6.2440,1472
6.2460,1328
6.2480,1312
6.2500,1392
6.2520,1360
6.2540,992
6.2560,2016
6.2580,1184
6.2600,1376
6.2620,1088
6.2640,1472
6.2660,1424
6.2680,1488
6.2700,1280
6.2720,1136
6.2740,1744
6.2760,896
6.2780,1056
6.2800,1168
6.2820,1296
6.2840,912
6.2860,2208
6.2880,1056
6.2900,2080
6.2920,1312
6.2940,1248
6.2960,1184
6.2980,1088
6.3000,1376
6.3020,1328
6.3040,1184
6.3060,896
6.3080,1056
6.3100,1248
6.3120,1664
6.3140,2880
6.3160,4881
6.3180,1104
6.3200,2896
6.3220,2144
6.3240,1232
6.3260,1616
6.3280,1568
6.3300,1376
6.3320,1712
6.3340,1504
6.3360,1552
6.3380,2096
6.3400,1632
6.3420,1120
6.3440,1760
6.3460,2048
6.3480,1024
6.3500,704
6.3520,1280
6.3540,1104
6.3560,896
6.3580,1248
6.3600,1024
6.3620,1200
6.3640,976
6.3660,1184
6.3680,1664
6.3700,1888
6.3720,1328
6.3740,1984
6.3760,5153
6.3780,3504
6.3800,3744
6.3820,4801
6.3840,1056
6.3860,1792
6.3880,2048
6.3900,1472
6.3920,1680
6.3940,1536
6.3960,1584
6.3980,2400
6.4000,1264
6.4020,2208
6.4040,1008
6.4060,1296
6.4080,1008
6.4100,2528
6.4120,1200
6.4140,1408
6.4160,2960
6.4180,1856
6.4200,2224
6.4220,992
6.4240,2592
6.4260,1600
6.4280,1152
6.4300,1648
6.4320,1280
6.4340,1728
6.4360,1600
6.4380,1408
6.4400,1504
6.4420,1232
6.4440,1072
6.4460,5553
6.4480,1840
6.4500,1696
6.4520,1248
6.4540,3568
6.4560,7489
6.4580,1408
6.4600,5169
6.4620,2016
6.4640,1440
6.4660,2016
6.4680,1616
6.4700,3776
6.4720,2096
6.4740,1760
6.4760,1680
6.4780,4801
6.4800,2112
6.4820,2320
6.4840,4241
6.4860,2144
6.4880,2528
6.4900,1984
6.4920,1952
6.4940,1280
6.4960,1824
6.4980,1312
6.5000,832
6.5020,1664
6.5040,2096
6.5060,3456
6.5080,4513
6.5100,1184
6.5120,4097
6.5140,5281
6.5160,2256
6.5180,1488
6.5200,2960
6.5220,5681
6.5240,3008
6.5260,1584
6.5280,1488
6.5300,1552
6.5320,3392
6.5340,1504
6.5360,1248
6.5380,2000
6.5400,1536
6.5420,1552
6.5440,6625
6.5460,1024
6.5480,1792
6.5500,1856
6.5520,1200
6.5540,6417
6.5560,2080
6.5580,1856
6.5600,2368
6.5620,2304
6.5640,2912
6.5660,4449
6.5680,4945
6.5700,4481
6.5720,1584
6.5740,2432
6.5760,5793
6.5780,5649
6.5800,6689
6.5820,2752
6.5840,1200
6.5860,4513
6.5880,6881
6.5900,20004
6.5920,11250
6.5940,8161
6.5960,7553
6.5980,1104
6.6000,1616
6.6020,1568
6.6040,15363
6.6060,1424
6.6080,17428
6.6100,9042
6.6120,1824
6.6140,5377
6.6160,4241
6.6180,8097
6.6200,1424
6.6220,1888
6.6240,5841
6.6260,1472
6.6280,12355
6.6300,1696
6.6320,2512
6.6340,1232
6.6360,3136
6.6380,14019
6.6400,1424
6.6420,2704
6.6440,1952
6.6460,976
6.6480,5681
6.6500,1968
6.6520,3584
6.6540,2960
6.6560,4529
6.6580,1632
6.6600,5377
6.6620,1360
6.6640,1456
6.6660,992
6.6680,1920
6.6700,19220
6.6720,5265
6.6740,4401
6.6760,3552
6.6780,2336
6.6800,9714
6.6820,7761
6.6840,13987
6.6860,4161
6.6880,2720
6.6900,13731
6.6920,3344
6.6940,6561
6.6960,12643
6.6980,9986
6.7000,1744
6.7020,4801
6.7040,8145
6.7060,9426
6.7080,10290
6.7100,1408
6.7120,1600
6.7140,18500
6.7160,7793
6.7180,19204
6.7200,7345
6.7220,7553
6.7240,8770
6.7260,1024
6.7280,10082
6.7300,2512
6.7320,3232
6.7340,1296
6.7360,6305
6.7380,4769
6.7400,1328
6.7420,5905
6.7440,26630
6.7460,7633
6.7480,2096
6.7500,28310
6.7520,12995
6.7540,2112
6.7560,27318
6.7580,2240
6.7600,2848
6.7620,1040
6.7640,11218
6.7660,9234
6.7680,3232
6.7700,16580
6.7720,13059
6.7740,3584
6.7760,1440
6.7780,4481
6.7800,19044
6.7820,1632
6.7840,8642
6.7860,12194
6.7880,14387
6.7900,15299
6.7920,16548
6.7940,18228
6.7960,26918
6.7980,27014
6.8000,7505
6.8020,7617
6.8040,7169
6.8060,4913
6.8080,6993
6.8100,4145
6.8120,2480
6.8140,1728
6.8160,13411
6.8180,1200
6.8200,2640
6.8220,1056
6.8240,8994
6.8260,17844
6.8280,1136
6.8300,25318
6.8320,1216
6.8340,2528
6.8360,9730
6.8380,12595
6.8400,1376
6.8420,3072
6.8440,5057
6.8460,5121
6.8480,12451
6.8500,34024
6.8520,18692
6.8540,12691
6.8560,1616
6.8580,1360
6.8600,2272
6.8620,3024
6.8640,928
6.8660,2752
6.8680,16644
6.8700,3216
6.8720,1632
6.8740,16580
6.8760,21685
6.8780,16163
6.8800,18644
6.8820,13891
6.8840,5585
6.8860,4064
6.8880,17572
6.8900,17028
6.8920,9730
6.8940,7377
6.8960,1472
6.8980,8674
6.9000,1072
6.9020,1440
6.9040,24758
6.9060,11602
6.9080,3712
6.9100,2992
6.9120,2592
6.9140,8866
6.9160,14803
6.9180,5313
6.9200,9378
6.9220,15715
6.9240,2144
6.9260,11970
6.9280,4545
6.9300,1632
6.9320,13507
6.9340,1712
6.9360,2064
6.9380,9874
6.9400,4337
6.9420,1376
6.9440,3648
6.9460,1744
6.9480,2640
6.9500,11106
6.9520,5601
6.9540,7313
6.9560,10162
6.9580,4257
6.9600,4257
6.9620,28006
6.9640,1552
6.9660,9442
6.9680,1872
6.9700,22677
6.9720,9282
6.9740,19012
6.9760,3472
6.9780,31975
6.9800,9202
6.9820,3360
6.9840,6433
6.9860,22357
6.9880,11154
6.9900,15907
6.9920,8658
6.9940,9442
6.9960,10754
6.9980,12098
7.0000,2560
7.0020,11970
7.0040,720
7.0060,7985
7.0080,2528
7.0100,9794
7.0120,2848
7.0140,1808
7.0160,1760
7.0180,2848
7.0200,1776
7.0220,32936
7.0240,29415
7.0260,4064
7.0280,1584
7.0300,3568
7.0320,12611
7.0340,6817
7.0360,9122
7.0380,5697
7.0400,12627
7.0420,4129
7.0440,2400
7.0460,12979
7.0480,2240
7.0500,5329
7.0520,1600
7.0540,8290
7.0560,10386
7.0580,13603
7.0600,1504
7.0620,3600
7.0640,2272
7.0660,21061
7.0680,19812
7.0700,12995
7.0720,14115
7.0740,13251
7.0760,1552
7.0780,41706
7.0800,4945
7.0820,4401
7.0840,8017
7.0860,14163
7.0880,6753
7.0900,15507
7.0920,13091
7.0940,18068
7.0960,3088
7.0980,9506
7.1000,9938
7.1020,12034
7.1040,22549
7.1060,7953
7.1080,2576
7.1100,2320
7.1120,25238
7.1140,1744
7.1160,8706
7.1180,1488
7.1200,15027
7.1220,2912
7.1240,8770
7.1260,4193
7.1280,2784
7.1300,13187
7.1320,16724
7.1340,26966
7.1360,20244
7.1380,28887
7.1400,6161
7.1420,12883
7.1440,7057
7.1460,12451
7.1480,4161
7.1500,24197
7.1520,24726
7.1540,1968
7.1560,16468
7.1580,9890
7.1600,12851
7.1620,19972
7.1640,3744
7.1660,2272
7.1680,1280
7.1700,12483
7.1720,13635
7.1740,21861
7.1760,20789
7.1780,7169
7.1800,7073
7.1820,8226
7.1840,2352
7.1860,9186
7.1880,6977
7.1900,17732
7.1920,2960
7.1940,6465
7.1960,19252
7.1980,14691
7.2000,2384
7.2020,9698
7.2040,4705
7.2060,6081
7.2080,23237
7.2100,4849
7.2120,20661
7.2140,7809
7.2160,2080
7.2180,6401
7.2200,4353
7.2220,13155
7.2240,21957
7.2260,29479
7.2280,1680
7.2300,8113
7.2320,8770
7.2340,5025
7.2360,1664
7.2380,2400
7.2400,10770
7.2420,24501
7.2440,944
7.2460,10082
7.2480,7585
7.2500,7169
7.2520,3216
7.2540,28951
7.2560,4113
7.2580,9970
7.2600,2688
7.2620,3808
7.2640,4865
7.2660,21685
7.2680,1888
7.2700,2704
7.2720,8274
7.2740,18724
7.2760,3776
7.2780,6945
7.2800,2464
7.2820,10146
7.2840,27782
7.2860,3712
7.2880,12803
7.2900,22917
7.2920,5649
7.2940,1488
7.2960,7601
7.2980,2976
7.3000,4417
7.3020,19412
7.3040,14531
7.3060,10210
7.3080,8338
7.3100,30055
7.3120,5713
7.3140,4961
7.3160,19972
7.3180,16211
7.3200,7169
7.3220,16051
7.3240,4913
7.3260,8450
7.3280,3344
7.3300,24453
7.3320,19988
7.3340,1312
7.3360,8674
7.3380,15587
7.3400,14995
7.3420,5121
7.3440,12995
7.3460,10034
7.3480,20260
7.3500,2432
7.3520,12162
7.3540,4080
7.3560,4865
7.3580,2944
7.3600,1584
7.3620,2448
7.3640,3632
7.3660,9890
7.3680,6865
7.3700,3488
7.3720,7777
7.3740,11330
7.3760,7377
7.3780,14627
7.3800,14275
7.3820,10914
7.3840,20052
7.3860,8258
7.3880,1680
7.3900,18532
7.3920,5457
7.3940,3616
7.3960,9426
7.3980,3024
7.4000,960
7.4020,14803
7.4040,10562
7.4060,9570
7.4080,4881
7.4100,2960
7.4120,29399
7.4140,12595
7.4160,1024
7.4180,6753
7.4200,3520
7.4220,13283
7.4240,6673
7.4260,12963
7.4280,7057
7.4300,14483
7.4320,10418
7.4340,6065
7.4360,4545
7.4380,24037
7.4400,4000
7.4420,2304
7.4440,4241
7.4460,7937
7.4480,2368
7.4500,1872
7.4520,7377
7.4540,3424
7.4560,7217
7.4580,5937
7.4600,4801
7.4620,1936
7.4640,8930
7.4660,4545
7.4680,1984
7.4700,1184
7.4720,9826
7.4740,10626
7.4760,5329
7.4780,2688
7.4800,1664
7.4820,1504
7.4840,6017
7.4860,1920
7.4880,4353
7.4900,8338
7.4920,9682
7.4940,2912
7.4960,12355
7.4980,1376
7.5000,20821
7.5020,4625
7.5040,1280
7.5060,24229
7.5080,14979
7.5100,2688
7.5120,3472
7.5140,2064
7.5160,10018
7.5180,9266
7.5200,1584
7.5220,38089
7.5240,1712
7.5260,8706
7.5280,8498
7.5300,5057
7.5320,13635
7.5340,3024
7.5360,29735
7.5380,31207
7.5400,10162
7.5420,17364
7.5440,18324
7.5460,3152
7.5480,2288
7.5500,18628
7.5520,16468
7.5540,11954
7.5560,2688
7.5580,3568
7.5600,5969
7.5620,16676
7.5640,4305
7.5660,13139
7.5680,18148
7.5700,35784
7.5720,7633
7.5740,1664
7.5760,2464
7.5780,3328
7.5800,14067
7.5820,5217
7.5840,6433
7.5860,2496
7.5880,3568
7.5900,23989
7.5920,7057
7.5940,5057
7.5960,11778
7.5980,1408
7.6000,1680
7.6020,6609
7.6040,7777
7.6060,3424
7.6080,912
7.6100,15139
7.6120,1200
7.6140,5409
7.6160,1504
7.6180,1312
7.6200,4897
7.6220,2944
7.6240,4353
7.6260,1424
7.6280,10802
7.6300,2224
7.6320,10914
7.6340,1840
7.6360,3248
7.6380,1216
7.6400,15571
7.6420,1264
7.6440,2864
7.6460,2848
7.6480,8962
7.6500,37609
7.6520,30023
7.6540,15299
7.6560,3872
7.6580,11954
7.6600,4273
7.6620,8994
7.6640,12915
7.6660,1744
7.6680,9170
7.6700,29623
7.6720,25622
7.6740,17156
7.6760,15731
7.6780,36664
7.6800,14227
7.6820,2608
7.6840,1456
7.6860,6257
7.6880,5665
7.6900,3632
7.6920,8177
7.6940,3152
7.6960,1280
7.6980,2464
7.7000,8177
7.7020,3632
7.7040,1600
7.7060,2560
7.7080,6305
7.7100,1424
7.7120,2224
7.7140,15315
7.7160,23285
7.7180,16644
7.7200,1232
7.7220,7169
7.7240,2944
7.7260,2240
7.7280,3360
7.7300,1824
7.7320,12114
7.7340,2224
7.7360,2624
7.7380,21941
7.7400,2240
7.7420,4945
7.7440,4097
7.7460,1472
7.7480,8530
7.7500,15475
7.7520,11522
7.7540,1856
7.7560,6049
7.7580,1824
7.7600,3072
7.7620,12579
7.7640,1104
7.7660,13331
7.7680,17700
7.7700,5105
7.7720,2064
7.7740,3168
7.7760,1376
7.7780,21685
7.7800,1952
7.7820,3152
7.7840,5697
7.7860,1408
7.7880,3232
7.7900,1424
7.7920,10002
7.7940,15635
7.7960,2640
7.7980,15795
7.8000,2000
7.8020,4369
7.8040,6657
7.8060,4737
7.8080,8177
7.8100,4833
7.8120,1088
7.8140,1760
7.8160,2640
7.8180,4385
7.8200,23701
7.8220,8177
7.8240,2480
7.8260,8402
7.8280,3120
7.8300,10450
7.8320,2096
7.8340,2560
7.8360,3616
7.8380,15523
7.8400,8434
7.8420,5505
7.8440,1408
7.8460,18692
7.8480,1248
7.8500,2208
7.8520,8450
7.8540,8242
7.8560,25750
7.8580,16996
7.8600,1184
7.8620,26006
7.8640,10674
7.8660,10274
7.8680,3664
7.8700,15683
7.8720,5649
7.8740,1968
7.8760,1024
7.8780,2048
7.8800,13347
7.8820,12403
7.8840,26646
7.8860,16516
7.8880,11458
7.8900,14803
7.8920,16179
7.8940,2112
7.8960,4321
7.8980,15251
7.9000,10514
7.9020,2752
7.9040,10082
7.9060,26374
7.9080,1712
7.9100,15811
7.9120,11682
7.9140,17796
7.9160,10578
7.9180,1424
7.9200,12659
7.9220,2960
7.9240,15507
7.9260,3904
7.9280,1568
7.9300,5761
7.9320,1200
7.9340,2304
7.9360,3168
7.9380,1392
7.9400,23573
7.9420,5937
7.9440,7441
7.9460,9554
7.9480,13411
7.9500,8274
7.9520,12146
7.9540,23701
7.9560,2080
7.9580,992
7.9600,3760
7.9620,14227
7.9640,10530
7.9660,4080
7.9680,1552
7.9700,4080
7.9720,17412
7.9740,10242
7.9760,3136
7.9780,10866
7.9800,3088
7.9820,3424
7.9840,1344
7.9860,4000
7.9880,3648
7.9900,1728
7.9920,4641
7.9940,4305
7.9960,17828
7.9980,7505
8.0000,7697
8.0020,1584
8.0040,2048
8.0060,11714
8.0080,16772
8.0100,4337
8.0120,12947
8.0140,3248
8.0160,4385
8.0180,13859
8.0200,3328
8.0220,4881
8.0240,4913
8.0260,1792
8.0280,12178
8.0300,4641
8.0320,2304
8.0340,4785
8.0360,13779
8.0380,2800
8.0400,4225
8.0420,1392
8.0440,2944
8.0460,5345
8.0480,1056
8.0500,5425
8.0520,5857
8.0540,2736
8.0560,1920
8.0580,10514
8.0600,18436
8.0620,2080
8.0640,3088
8.0660,5761
8.0680,12018
8.0700,21813
8.0720,1600
8.0740,7569
8.0760,2192
8.0780,1616
8.0800,1408
8.0820,18308
8.0840,28887
8.0860,7105
8.0880,1456
8.0900,19044
8.0920,11298
8.0940,7169
8.0960,11538
8.0980,1328
8.1000,7601
8.1020,2688
8.1040,15507
8.1060,8466
8.1080,17668
8.1100,8258
8.1120,14979
8.1140,15795
8.1160,7233
8.1180,2304
8.1200,6529
8.1220,7345
8.1240,14115
8.1260,3968
8.1280,1168
8.1300,5937
8.1320,18996
8.1340,8642
8.1360,5537
8.1380,7009
8.1400,17732
8.1420,2336
8.1440,15331
8.1460,1872
8.1480,2000
8.1500,6449
8.1520,1856
8.1540,15187
8.1560,9042
8.1580,3088
8.1600,7489
8.1620,17924
8.1640,3232
8.1660,4385
8.1680,11202
8.1700,7585
8.1720,1776
8.1740,16083
8.1760,2864
8.1780,4609
8.1800,2592
8.1820,3296
8.1840,3920
8.1860,1552
8.1880,5505
8.1900,16820
8.1920,5393
8.1940,1552
8.1960,12050
8.1980,5953
8.2000,20885
8.2020,16708
8.2040,1072
8.2060,9442
8.2080,1808
8.2100,19364
8.2120,11746
8.2140,18580
8.2160,6881
8.2180,1104
8.2200,1584
8.2220,14419
8.2240,2144
8.2260,3664
8.2280,10146
8.2300,7969
8.2320,14339
8.2340,1440
8.2360,3232
8.2380,1312
8.2400,1808
8.2420,2272
8.2440,10546
8.2460,1360
8.2480,4337
8.2500,14291
8.2520,26758
8.2540,1824
8.2560,1472
8.2580,7233
8.2600,2496
8.2620,5537
8.2640,9074
8.2660,4753
8.2680,11570
8.2700,7057
8.2720,10290
8.2740,1792
8.2760,5009
8.2780,11202
8.2800,10450
8.2820,20645
8.2840,2480
8.2860,1888
8.2880,3536
8.2900,2016
8.2920,13059
8.2940,3232
8.2960,1712
8.2980,992
8.3000,2208
8.3020,2480
8.3040,15571
8.3060,6625
8.3080,9650
8.3100,1824
8.3120,9186
8.3140,7297
8.3160,9858
8.3180,9762
8.3200,6801
8.3220,6305
8.3240,20677
8.3260,4497
8.3280,19620
8.3300,18868
8.3320,3216
8.3340,10194
8.3360,14179
8.3380,16692
8.3400,13507
8.3420,11490
8.3440,6561
8.3460,13763
8.3480,8834
8.3500,1056
8.3520,1504
8.3540,1168
8.3560,2832
8.3580,7953
8.3600,2480
8.3620,4273
8.3640,3040
8.3660,8081
8.3680,12258
8.3700,24918
8.3720,1456
8.3740,5073
8.3760,1312
8.3780,23301
8.3800,21669
8.3820,3248
8.3840,19956
8.3860,2896
8.3880,10114
8.3900,1664
8.3920,11266
8.3940,10050
8.3960,5313
8.3980,3872
8.4000,1040
8.4020,944
8.4040,28598
8.4060,2704
8.4080,5089
8.4100,1984
8.4120,5921
8.4140,12323
8.4160,11314
8.4180,9906
8.4200,4785
8.4220,3472
8.4240,3824
8.4260,3744
8.4280,2368
8.4300,10706
8.4320,7249
8.4340,10162
8.4360,3216
8.4380,3184
8.4400,12755
8.4420,24565
8.4440,1408
8.4460,12467
8.4480,17588
8.4500,16596
8.4520,1072
8.4540,6657
8.4560,3360
8.4580,29143
8.4600,17876
8.4620,11618
8.4640,5057
8.4660,3360
8.4680,2064
8.4700,11826
8.4720,2608
8.4740,1744
8.4760,9682
8.4780,14435
8.4800,5425
8.4820,9138
8.4840,5937
8.4860,1712
8.4880,2352
8.4900,8834
8.4920,1936
8.4940,12066
8.4960,6113
8.4980,2384
8.5000,2288
8.5020,8466
8.5040,6737
8.5060,7441
8.5080,14755
8.5100,35032
8.5120,12178
8.5140,7217
8.5160,13763
8.5180,7313
8.5200,6641
8.5220,4080
8.5240,1568
8.5260,8258
8.5280,12258
8.5300,9826
8.5320,2048
8.5340,1792
8.5360,1680
8.5380,1488
8.5400,11074
8.5420,5377
8.5440,4593
8.5460,13059
8.5480,15843
8.5500,1728
8.5520,1872
8.5540,25254
8.5560,21029
8.5580,9890
8.5600,2624
8.5620,1872
8.5640,3280
8.5660,6017
8.5680,5809
8.5700,4529
8.5720,4016
8.5740,2096
8.5760,8354
8.5780,8274
8.5800,1504
8.5820,1616
8.5840,2832
8.5860,7105
8.5880,9858
8.5900,2112
8.5920,9058
8.5940,2448
8.5960,17060
8.5980,13891
8.6000,16259
8.6020,17988
8.6040,10514
8.6060,14643
8.6080,4545
8.6100,6065
8.6120,7249
8.6140,1456
8.6160,2864
8.6180,11922
8.6200,1760
8.6220,2624
8.6240,12931
8.6260,4369
8.6280,8354
8.6300,1168
8.6320,5409
8.6340,19460
8.6360,2624
8.6380,11666
8.6400,3792
8.6420,4353
8.6440,18324
8.6460,3248
8.6480,19412
8.6500,10834
8.6520,2256
8.6540,3472
8.6560,25350
8.6580,6529
8.6600,2096
8.6620,6897
8.6640,17252
8.6660,13827
8.6680,2992
8.6700,1104
8.6720,8610
8.6740,22597
8.6760,9698
8.6780,5313
8.6800,13427
8.6820,3408
8.6840,13075
8.6860,2080
8.6880,10786
8.6900,12114
8.6920,9090
8.6940,1824
8.6960,3424
8.6980,1568
8.7000,1200
8.7020,2336
8.7040,12851
8.7060,4064
8.7080,3136
8.7100,2288
8.7120,29831
8.7140,1168
8.7160,5393
8.7180,21013
8.7200,29623
8.7220,1616
8.7240,1472
8.7260,18868
8.7280,10034
8.7300,1552
8.7320,2048
8.7340,9170
8.7360,4145
8.7380,8001
8.7400,5025
8.7420,1552
8.7440,2960
8.7460,4497
8.7480,1024
8.7500,4113
8.7520,11362
8.7540,17540
8.7560,9618
8.7580,4353
8.7600,19524
8.7620,21973
8.7640,13875
8.7660,4048
8.7680,992
8.7700,3872
8.7720,944
8.7740,1776
8.7760,6321
8.7780,2000
8.7800,9650
8.7820,4465
8.7840,14483
8.7860,6721
8.7880,19764
8.7900,17876
8.7920,2656
8.7940,8418
8.7960,1440
8.7980,7441
8.8000,1456
8.8020,1392
8.8040,960
8.8060,10690
8.8080,17188
8.8100,1744
8.8120,3264
8.8140,1184
8.8160,1984
8.8180,1424
8.8200,1984
8.8220,4609
8.8240,2304
8.8260,12451
8.8280,1344
8.8300,4993
8.8320,21333
8.8340,35832
8.8360,3648
8.8380,6561
8.8400,1664
8.8420,3936
8.8440,1072
8.8460,1584
8.8480,1808
8.8500,7857
8.8520,5425
8.8540,12515
8.8560,1168
8.8580,8546
8.8600,3536
8.8620,4273
8.8640,976
8.8660,1344
8.8680,2080
8.8700,1280
8.8720,7905
8.8740,4193
8.8760,1600
8.8780,11394
8.8800,15635
8.8820,1424
8.8840,9442
8.8860,2560
8.8880,1632
8.8900,23365
8.8920,25894
8.8940,4353
8.8960,6081
8.8980,3792
8.9000,2240
8.9020,8177
8.9040,1536
8.9060,3840
8.9080,4000
8.9100,2464
8.9120,1984
8.9140,2832
8.9160,6737
8.9180,1408
8.9200,22501
8.9220,4945
8.9240,22821
8.9260,2944
8.9280,12274
8.9300,2480
8.9320,21093
8.9340,15411
8.9360,1072
8.9380,6913
8.9400,10370
8.9420,24902
8.9440,4433
8.9460,3408
8.9480,13747
8.9500,3424
8.9520,1328
8.9540,10546
8.9560,10786
8.9580,1328
8.9600,3248
8.9620,3328
8.9640,6177
8.9660,1856
8.9680,10098
8.9700,1248
8.9720,4113
8.9740,8674
8.9760,3232
8.9780,2352
8.9800,3488
8.9820,1312
8.9840,10274
8.9860,15587
8.9880,16532
8.9900,13731
8.9920,9170
8.9940,3712
8.9960,16596
8.9980,13059
9.0000,2848
9.0020,1952
9.0040,12002
9.0060,7041
9.0080,4417
9.0100,4641
9.0120,1248
9.0140,6673
9.0160,5889
9.0180,5249
9.0200,2144
9.0220,5969
9.0240,3984
9.0260,4177
9.0280,27286
9.0300,25254
9.0320,1552
9.0340,8065
9.0360,960
9.0380,2912
9.0400,1616
9.0420,15267
9.0440,11362
9.0460,16404
9.0480,3552
9.0500,1424
9.0520,4161
9.0540,17732
9.0560,14211
9.0580,1584
9.0600,5921
9.0620,3504
9.0640,14035
9.0660,15923
9.0680,16083
9.0700,2336
9.0720,2048
9.0740,1632
9.0760,2176
9.0780,8194
9.0800,1168
9.0820,7089
9.0840,1568
9.0860,8786
9.0880,1344
9.0900,12371
9.0920,26886
9.0940,1888
9.0960,8322
9.0980,8370
9.1000,1456
9.1020,1440
9.1040,2048
9.1060,6097
9.1080,3808
9.1100,1296
9.1120,9266
9.1140,4097
9.1160,3072
9.1180,1792
9.1200,8226
9.1220,1328
9.1240,4609
9.1260,7329
9.1280,24710
9.1300,22981
9.1320,3744
9.1340,6033
9.1360,14643
9.1380,6065
9.1400,5681
9.1420,24870
9.1440,9186
9.1460,2608
9.1480,2320
9.1500,7009
9.1520,6273
9.1540,2240
9.1560,4769
9.1580,12050
9.1600,8546
9.1620,15619
9.1640,2976
9.1660,17700
9.1680,12467
9.1700,4177
9.1720,1344
9.1740,4513
9.1760,15043
9.1780,2864
9.1800,1872
9.1820,1472
9.1840,8290
9.1860,35880
9.1880,11538
9.1900,3968
9.1920,1424
9.1940,10322
9.1960,20741
9.1980,11026
9.2000,1248
9.2020,7313
9.2040,1296
9.2060,13587
9.2080,7553
9.2100,14787
9.2120,1168
9.2140,1552
9.2160,31447
9.2180,1088
9.2200,12483
9.2220,29287
9.2240,40121
9.2260,1792
9.2280,10002
9.2300,1104
9.2320,3424
9.2340,6161
9.2360,11906
9.2380,2768
9.2400,13123
9.2420,1360
9.2440,2320
9.2460,2864
9.2480,1712
9.2500,3360
9.2520,3280
9.2540,1600
9.2560,2944
9.2580,4529
9.2600,3472
9.2620,1968
9.2640,5169
9.2660,2528
9.2680,2768
9.2700,2336
9.2720,2096
9.2740,6801
9.2760,1920
9.2780,5569
9.2800,9746
9.2820,12130
9.2840,1552
9.2860,4961
9.2880,8498
9.2900,14019
9.2920,1264
9.2940,5793
9.2960,3024
9.2980,3904
9.3000,12034
9.3020,8161
9.3040,5297
9.3060,1936
9.3080,10114
9.3100,7681
9.3120,6113
9.3140,18580
9.3160,9490
9.3180,5905
9.3200,21141
9.3220,2880
9.3240,11138
9.3260,3840
9.3280,1968
9.3300,1360
9.3320,2704
9.3340,2064
9.3360,1488
9.3380,14691
9.3400,1584
9.3420,19412
9.3440,10530
9.3460,9570
9.3480,1600
9.3500,5921
9.3520,5121
9.3540,13987
9.3560,2768
9.3580,13395
9.3600,4113
9.3620,5585
9.3640,9986
9.3660,1568
9.3680,10658
9.3700,2384
9.3720,1616
9.3740,27142
9.3760,2864
9.3780,29511
9.3800,2272
9.3820,1920
9.3840,1760
9.3860,10066
9.3880,7953
9.3900,11362
9.3920,24854
9.3940,2976
9.3960,7297
9.3980,5265
9.4000,4016
9.4020,6817
9.4040,1808
9.4060,10786
9.4080,7329
9.4100,10658
9.4120,4513
9.4140,6145
9.4160,4353
9.4180,1440
9.4200,6529
9.4220,14867
9.4240,8738
9.4260,26310
9.4280,10770
9.4300,16788
9.4320,5041
9.4340,18084
9.4360,2464
9.4380,3296
9.4400,2080
9.4420,6417
9.4440,14211
9.4460,2336
9.4480,15491
9.4500,5441
9.4520,1360
9.4540,2352
9.4560,8177
9.4580,6945
9.4600,1376
9.4620,14211
9.4640,15107
9.4660,2000
9.4680,1984
9.4700,1968
9.4720,22725
9.4740,8001
9.4760,3488
9.4780,6865
9.4800,1568
9.4820,5089
9.4840,3200
9.4860,4401
9.4880,1888
9.4900,7809
9.4920,2416
9.4940,8210
9.4960,2896
9.4980,912
9.5000,1088
9.5020,7297
9.5040,8978
9.5060,18932
9.5080,11474
9.5100,12675
9.5120,2304
9.5140,25830
9.5160,1808
9.5180,13827
9.5200,2352
9.5220,3392
9.5240,7777
9.5260,16339
9.5280,2304
9.5300,6625
9.5320,3360
9.5340,16099
9.5360,5969
9.5380,4833
9.5400,4353
9.5420,13123
9.5440,4048
9.5460,1264
9.5480,2080
9.5500,4641
9.5520,2432
9.5540,1616
9.5560,8674
9.5580,2352
9.5600,6593
9.5620,7409
9.5640,2080
9.5660,2624
9.5680,2480
9.5700,7505
9.5720,1520
9.5740,4993
9.5760,3504
9.5780,1024
9.5800,6465
9.5820,16388
9.5840,10322
9.5860,1728
9.5880,13571
9.5900,1680
9.5920,11954
9.5940,3072
9.5960,2976
9.5980,1424
9.6000,1424
9.6020,1360
9.6040,13091
9.6060,17684
9.6080,4369
9.6100,1296
9.6120,2832
9.6140,1344
9.6160,4529
9.6180,1280
9.6200,5937
9.6220,1328
9.6240,3648
9.6260,4977
9.6280,7313
9.6300,3168
9.6320,4032
9.6340,7441
9.6360,1360
9.6380,2240
9.6400,944
9.6420,2608
9.6440,14851
9.6460,12867
9.6480,5201
9.6500,9618
9.6520,24485
9.6540,18052
9.6560,6881
9.6580,1408
9.6600,10722
9.6620,3104
9.6640,13859
9.6660,7553
9.6680,2096
9.6700,1552
9.6720,2352
9.6740,1664
9.6760,6849
9.6780,8145
9.6800,11426
9.6820,14867
9.6840,10162
9.6860,1344
9.6880,6417
9.6900,6209
9.6920,1104
9.6940,4689
9.6960,3392
9.6980,1520
9.7000,1360
9.7020,12066
9.7040,4289
9.7060,1712
9.7080,5585
9.7100,5201
9.7120,9906
9.7140,19892
9.7160,1328
9.7180,19092
9.7200,8081
9.7220,18244
9.7240,4865
9.7260,2208
9.7280,2320
9.7300,9778
9.7320,1328
9.7340,1088
9.7360,3424
9.7380,7457
9.7400,1568
9.7420,22933
9.7440,3792
9.7460,14851
9.7480,4225
9.7500,3648
9.7520,1440
9.7540,6481
9.7560,5425
9.7580,1664
9.7600,2656
9.7620,1168
9.7640,18004
9.7660,25494
9.7680,1616
9.7700,992
9.7720,1472
9.7740,2816
9.7760,1888
9.7780,10306
9.7800,14771
9.7820,1024
9.7840,16227
9.7860,22869
9.7880,7953
9.7900,6961
9.7920,3744
9.7940,15523
9.7960,22197
9.7980,6753
9.8000,9378
9.8020,14147
9.8040,27606
9.8060,8177
9.8080,1280
9.8100,3664
9.8120,5569
9.8140,6881
9.8160,1328
9.8180,1584
9.8200,7569
9.8220,2944
9.8240,6865
9.8260,5521
9.8280,8161
9.8300,8129
9.8320,2144
9.8340,4193
9.8360,5921
9.8380,2576
9.8400,3536
9.8420,8242
9.8440,4481
9.8460,2528
9.8480,7649
9.8500,3664
9.8520,1344
9.8540,1920
9.8560,2304
9.8580,1040
9.8600,16291
9.8620,4577
9.8640,6209
9.8660,1136
9.8680,4225
9.8700,2272
9.8720,4529
9.8740,8322
9.8760,1456
9.8780,8210
9.8800,2448
9.8820,6049
9.8840,1280
9.8860,23893
9.8880,3360
9.8900,2560
9.8920,4561
9.8940,1168
9.8960,1360
9.8980,2080
9.9000,5185
9.9020,1872
9.9040,1424
9.9060,4129
9.9080,15795
9.9100,4417
9.9120,1552
9.9140,3008
9.9160,1472
9.9180,5201
9.9200,11794
9.9220,9618
9.9240,5025
9.9260,13779
9.9280,16355
9.9300,10194
9.9320,2464
9.9340,2320
9.9360,3920
9.9380,2256
9.9400,5089
9.9420,2512
9.9440,4337
9.9460,3088
9.9480,3808
9.9500,7089
9.9520,10546
9.9540,6145
9.9560,2048
9.9580,7553
9.9600,1232
9.9620,1152
9.9640,1408
9.9660,9426
9.9680,6897
9.9700,2320
9.9720,8177
9.9740,1056
9.9760,7617
9.9780,1968
9.9800,6737
9.9820,5905
9.9840,6465
9.9860,8177
9.9880,12451
9.9900,1408
9.9920,4257
9.9940,18180
9.9960,2512
9.9980,15923
10.0000,65535
10.0020,7857
10.0040,6433
10.0060,8978
10.0080,4225
10.0100,20100
10.0120,25126
10.0140,4625
10.0160,2896
10.0180,1952
10.0200,1280
10.0220,26710
10.0240,2128
10.0260,8834
10.0280,3808
10.0300,19812
10.0320,4433
10.0340,1440
10.0360,5473
10.0380,1728
10.0400,1312
10.0420,11586
10.0440,3232
10.0460,2224
10.0480,6737
10.0500,17476
10.0520,14563
10.0540,4032
10.0560,1744
10.0580,23557
10.0600,2704
10.0620,1936
10.0640,1792
10.0660,8177
10.0680,15667
10.0700,1920
10.0720,4449
10.0740,1312
10.0760,6865
10.0780,1424
10.0800,1552
10.0820,8674
10.0840,7585
10.0860,7937
10.0880,2272
10.0900,3200
10.0920,4641
10.0940,14755
10.0960,16195
10.0980,13171
10.1000,4161
10.1020,1472
10.1040,1248
10.1060,14499
10.1080,7361
10.1100,2432
10.1120,1200
10.1140,6865
10.1160,8578
10.1180,22661
10.1200,13171
10.1220,3024
10.1240,9490
10.1260,2368
10.1280,4785
10.1300,4289
10.1320,12675
10.1340,4401
10.1360,17988
10.1380,4129
10.1400,10802
10.1420,12323
10.1440,5617
10.1460,14227
10.1480,6865
10.1500,7121
10.1520,4449
10.1540,944
10.1560,1632
10.1580,17156
10.1600,1888
10.1620,2464
10.1640,3504
10.1660,3616
10.1680,21909
10.1700,22021
10.1720,2784
10.1740,9122
10.1760,2320
10.1780,1712
10.1800,11314
10.1820,1808
10.1840,1200
10.1860,2160
10.1880,5633
10.1900,1424
10.1920,2128
10.1940,2240
10.1960,1360
10.1980,3520
10.2000,3392
10.2020,1200
10.2040,4433
10.2060,15011
10.2080,3888
10.2100,4673
10.2120,4161
10.2140,4673
10.2160,6961
10.2180,2112
10.2200,5713
10.2220,6817
10.2240,15923
10.2260,18340
10.2280,6881
10.2300,8914
10.2320,7473
10.2340,24133
10.2360,8834
10.2380,22101
10.2400,29639
10.2420,1664
10.2440,13491
10.2460,16724
10.2480,6305
10.2500,14403
10.2520,9122
10.2540,1056
10.2560,10546
10.2580,3712
10.2600,7169
10.2620,992
10.2640,2336
10.2660,1456
10.2680,15235
10.2700,2320
10.2720,17108
10.2740,1376
10.2760,15875
10.2780,9138
10.2800,2560
10.2820,7841
10.2840,5025
10.2860,1952
10.2880,6993
10.2900,3664
10.2920,14227
10.2940,26150
10.2960,12323
10.2980,1488
10.3000,4193
10.3020,8226
10.3040,6673
10.3060,4961
10.3080,7825
10.3100,2560
10.3120,2528
10.3140,6081
10.3160,12979
10.3180,26166
10.3200,16612
10.3220,14051
10.3240,4048
10.3260,14099
10.3280,19636
10.3300,2928
10.3320,14371
10.3340,16500
10.3360,14659
10.3380,4064
10.3400,1168
10.3420,2256
10.3440,4513
10.3460,4545
10.3480,10050
10.3500,1600
10.3520,3744
10.3540,6033
10.3560,5633
10.3580,2912
10.3600,6081
10.3620,12867
10.3640,3008
10.3660,14899
10.3680,4769
10.3700,5201
10.3720,15027
10.3740,5425
10.3760,3584
10.3780,1408
10.3800,2128
10.3820,2736
10.3840,1456
10.3860,1440
10.3880,1920
10.3900,1168
10.3920,1680
10.3940,3136
10.3960,1968
10.3980,1536
10.4000,1328
10.4020,2576
10.4040,6401
10.4060,7697
10.4080,7201
10.4100,6209
10.4120,7057
10.4140,2640
10.4160,2240
10.4180,1536
10.4200,14851
10.4220,2640
10.4240,2048
10.4260,1056
10.4280,1728
10.4300,2816
10.4320,1856
10.4340,8978
10.4360,11154
10.4380,12371
10.4400,4000
10.4420,1328
10.4440,1328
10.4460,1072
10.4480,1872
10.4500,3424
10.4520,6577
10.4540,2592
10.4560,1296
10.4580,2208
10.4600,1104
10.4620,5553
10.4640,1040
10.4660,5345
10.4680,4145
10.4700,6065
10.4720,3392
10.4740,14899
10.4760,13763
10.4780,6801
10.4800,1376
10.4820,5377
10.4840,1040
10.4860,2960
10.4880,2304
10.4900,2528
10.4920,8850
10.4940,10546
10.4960,1200
10.4980,1280
10.5000,1440
10.5020,1408
10.5040,20180
10.5060,22581
10.5080,1344
10.5100,1808
10.5120,7585
10.5140,16932
10.5160,2080
10.5180,2112
10.5200,1184
10.5220,1600
10.5240,1168
10.5260,1232
10.5280,1424
10.5300,9554
10.5320,2496
10.5340,2000
10.5360,5121
10.5380,4881
10.5400,5681
10.5420,7633
10.5440,2960
10.5460,1760
10.5480,3344
10.5500,1808
10.5520,1520
10.5540,3168
10.5560,1856
10.5580,7169
10.5600,1056
10.5620,1616
10.5640,976
10.5660,1296
10.5680,1536
10.5700,9282
10.5720,1664
10.5740,1008
10.5760,2272
10.5780,1360
10.5800,1440
10.5820,1808
10.5840,2384
10.5860,1600
10.5880,2224
10.5900,1168
10.5920,3168
10.5940,2192
10.5960,9426
10.5980,3664
10.6000,1536
10.6020,3328
10.6040,1600
10.6060,3776
10.6080,1120
10.6100,976
10.6120,1248
10.6140,976
10.6160,4785
10.6180,2736
10.6200,1840
10.6220,3984
10.6240,1808
10.6260,2304
10.6280,4048
10.6300,2336
10.6320,1440
10.6340,1408
10.6360,896
10.6380,3792
10.6400,1168
10.6420,2352
10.6440,1856
10.6460,1456
10.6480,1120
10.6500,1056
10.6520,1728
10.6540,1696
10.6560,2864
10.6580,1360
10.6600,1280
10.6620,1792
10.6640,1552
10.6660,1376
10.6680,1104
10.6700,2880
10.6720,7329
10.6740,2464
10.6760,1536
10.6780,1840
10.6800,2144
10.6820,3136
10.6840,1328
10.6860,1872
10.6880,1456
10.6900,1584
10.6920,4097
10.6940,2608
10.6960,1056
10.6980,3632
10.7000,1264
10.7020,7201
10.7040,17108
10.7060,4097
10.7080,1120
10.7100,1376
10.7120,6993
10.7140,1184
10.7160,1296
10.7180,2208
10.7200,2704
10.7220,1072
10.7240,1120
10.7260,1456
10.7280,3808
10.7300,8898
10.7320,3072
10.7340,3904
10.7360,1840
10.7380,1296
10.7400,1088
10.7420,2368
10.7440,3008
10.7460,2096
10.7480,4225
10.7500,8882
10.7520,1040
10.7540,2272
10.7560,2096
10.7580,1920
10.7600,1488
10.7620,5089
10.7640,2064
10.7660,1680
10.7680,1200
10.7700,1888
10.7720,1680
10.7740,1504
10.7760,2464
10.7780,1360
10.7800,1456
10.7820,1184
10.7840,1856
10.7860,2816
10.7880,944
10.7900,1808
10.7920,1920
10.7940,2592
10.7960,8177
10.7980,1360
10.8000,3152
10.8020,2464
10.8040,1216
10.8060,1216
10.8080,1472
10.8100,2256
10.8120,1344
10.8140,1072
10.8160,1632
10.8180,1872
10.8200,2368
10.8220,1584
10.8240,1760
10.8260,2848
10.8280,1824
10.8300,1600
10.8320,3264
10.8340,800
10.8360,1200
10.8380,976
10.8400,1232
10.8420,1360
10.8440,1504
10.8460,864
10.8480,1936
10.8500,1408
10.8520,2784
10.8540,1520
10.8560,1072
10.8580,1504
10.8600,3504
10.8620,1952
10.8640,1072
10.8660,1040
10.8680,7121
10.8700,3632
10.8720,1536
10.8740,1872
10.8760,3264
10.8780,1696
10.8800,1712
10.8820,976
10.8840,2688
10.8860,1152
10.8880,1696
10.8900,6769
10.8920,8786
10.8940,1760
10.8960,2320
10.8980,1072
10.9000,1616
10.9020,1712
10.9040,1152
10.9060,848
10.9080,1168
10.9100,3856
10.9120,1328
10.9140,944
10.9160,1152
10.9180,1792
10.9200,1440
10.9220,2656
10.9240,1536
10.9260,1632
10.9280,1440
10.9300,1072
10.9320,1216
10.9340,1216
10.9360,1056
10.9380,1280
10.9400,2352
10.9420,4449
10.9440,4961
10.9460,7137
10.9480,2048
10.9500,14115
10.9520,2624
10.9540,1424
10.9560,1728
10.9580,2304
10.9600,4689
10.9620,6609
10.9640,1552
10.9660,1616
10.9680,1152
10.9700,1056
10.9720,1360
10.9740,4737
10.9760,8097
10.9780,10882
10.9800,1952
10.9820,1296
10.9840,1120
10.9860,1072
10.9880,1760
10.9900,1760
10.9920,928
10.9940,1152
10.9960,1072
10.9980,2304
11.0000,928
11.0020,8722
11.0040,11122
11.0060,1728
11.0080,2304
11.0100,832
11.0120,976
11.0140,1984
11.0160,1552
11.0180,1664
11.0200,3648
11.0220,1072
11.0240,5089
11.0260,4145
11.0280,1760
11.0300,2496
11.0320,1040
11.0340,1840
11.0360,912
11.0380,2256
11.0400,1040
11.0420,5857
11.0440,1488
11.0460,2192
11.0480,2048
11.0500,1600
11.0520,3408
11.0540,2432
11.0560,1552
11.0580,1632
11.0600,10914
11.0620,17956
11.0640,992
11.0660,592
11.0680,1216
11.0700,2176
11.0720,1744
11.0740,1152
11.0760,1456
11.0780,1232
11.0800,2432
11.0820,1680
11.0840,1280
11.0860,1248
11.0880,5025
11.0900,3680
11.0920,1248
11.0940,1424
11.0960,1040
11.0980,2912
11.1000,1456
11.1020,1792
11.1040,768
11.1060,1024
11.1080,2384
11.1100,1568
11.1120,768
11.1140,848
11.1160,1600
11.1180,4449
11.1200,4865
11.1220,1280
11.1240,1488
11.1260,1760
11.1280,800
11.1300,704
11.1320,1872
11.1340,1072
11.1360,1280
11.1380,912
11.1400,784
11.1420,2944
11.1440,2128
11.1460,1008
11.1480,4129
11.1500,1328
11.1520,2000
11.1540,1712
11.1560,1104
11.1580,1344
11.1600,1360
11.1620,1072
11.1640,1584
11.1660,2176
11.1680,1344
11.1700,1968
11.1720,8882
11.1740,2224
11.1760,1456
11.1780,2736
11.1800,1936
11.1820,832
11.1840,1296
11.1860,1248
11.1880,912
11.1900,12627
11.1920,6561
11.1940,1312
11.1960,1152
11.1980,1360
11.2000,1120
11.2020,1040
11.2040,5329
11.2060,2320
11.2080,3968
11.2100,7633
11.2120,1264
11.2140,1808
11.2160,2544
11.2180,1552
11.2200,1072
11.2220,1200
11.2240,912
11.2260,1040
11.2280,1744
11.2300,1344
11.2320,3120
11.2340,1104
11.2360,1296
11.2380,896
11.2400,1264
11.2420,1120
11.2440,1152
11.2460,896
11.2480,1632
11.2500,832
11.2520,1168
11.2540,1040
11.2560,1504
11.2580,1248
11.2600,720
11.2620,1328
11.2640,1328
11.2660,1280
11.2680,1696
11.2700,1280
11.2720,1120
11.2740,6625
11.2760,3680
11.2780,3104
11.2800,1424
11.2820,2288
11.2840,2592
11.2860,2480
11.2880,944
11.2900,2064
11.2920,2608
11.2940,1024
11.2960,768
11.2980,1184
11.3000,1184
11.3020,1280
11.3040,1728
11.3060,1488
11.3080,2480
11.3100,1184
11.3120,1120
11.3140,3664
11.3160,2896
11.3180,1392
11.3200,976
11.3220,1536
11.3240,864
11.3260,1280
11.3280,880
11.3300,992
11.3320,1456
11.3340,1216
11.3360,2720
11.3380,1280
11.3400,1760
11.3420,1312
11.3440,4929
11.3460,3872
11.3480,1584
11.3500,5073
11.3520,5585
11.3540,1120
11.3560,2144
11.3580,736
11.3600,2208
11.3620,992
11.3640,816
11.3660,2512
11.3680,2768
11.3700,1280
11.3720,1136
11.3740,816
11.3760,1216
11.3780,816
11.3800,1744
11.3820,1408
11.3840,2016
11.3860,1648
11.3880,1328
11.3900,1024
11.3920,1200
11.3940,1024
11.3960,1040
11.3980,1328
11.4000,1360
11.4020,7921
11.4040,4000
11.4060,4577
11.4080,2512
11.4100,3424
11.4120,1120
11.4140,1440
11.4160,608
11.4180,1904
11.4200,864
11.4220,2192
11.4240,976
11.4260,3584
11.4280,3392
11.4300,1616
11.4320,992
11.4340,1456
11.4360,800
11.4380,1312
11.4400,1248
11.4420,800
11.4440,1088
11.4460,576
11.4480,1840
11.4500,944
11.4520,1744
11.4540,800
11.4560,864
11.4580,2272
11.4600,2224
11.4620,1360
11.4640,1104
11.4660,1072
11.4680,1520
11.4700,1328
11.4720,960
11.4740,960
11.4760,3936
11.4780,848
11.4800,976
11.4820,1296
11.4840,1184
11.4860,2000
11.4880,1168
11.4900,1360
11.4920,1184
11.4940,1296
11.4960,1312
11.4980,1296
11.5000,1664
11.5020,1536
11.5040,1040
11.5060,832
11.5080,1040
11.5100,4625
11.5120,5153
11.5140,1728
11.5160,1472
11.5180,1120
11.5200,2352
11.5220,1360
11.5240,960
11.5260,1600
11.5280,6081
11.5300,8017
11.5320,2336
11.5340,1328
11.5360,1072
11.5380,928
11.5400,3024
11.5420,2400
11.5440,1232
11.5460,1088
11.5480,1952
11.5500,1424
11.5520,5249
11.5540,3072
11.5560,1072
11.5580,1424
11.5600,2448
11.5620,2608
11.5640,1568
11.5660,1120
11.5680,1200
11.5700,992
11.5720,928
11.5740,944
11.5760,432
11.5780,1344
11.5800,1632
11.5820,1504
11.5840,1312
11.5860,1072
11.5880,1168
11.5900,992
11.5920,1280
11.5940,656
11.5960,2064
11.5980,864
11.6000,1328
11.6020,2912
11.6040,1216
11.6060,3888
11.6080,6497
11.6100,6049
11.6120,816
11.6140,976
11.6160,416
11.6180,992
11.6200,1248
11.6220,1712
11.6240,1072
11.6260,1024
11.6280,944
11.6300,1344
11.6320,1232
11.6340,10514
11.6360,5457
11.6380,1296
11.6400,10002
11.6420,736
11.6440,5281
11.6460,1312
11.6480,1360
11.6500,1568
11.6520,1584
11.6540,1104
11.6560,928
11.6580,1920
11.6600,2592
11.6620,1088
11.6640,752
11.6660,1712
11.6680,1712
11.6700,2704
11.6720,1552
11.6740,1168
11.6760,2528
11.6780,928
11.6800,1696
11.6820,1232
11.6840,1200
11.6860,992
11.6880,1216
11.6900,1152
11.6920,1040
11.6940,1952
11.6960,2384
11.6980,1312
11.7000,4737
11.7020,1760
11.7040,2352
11.7060,1168
11.7080,1920
11.7100,1408
11.7120,848
11.7140,1168
11.7160,1072
11.7180,976
11.7200,1344
11.7220,848
11.7240,1456
11.7260,1120
11.7280,1072
11.7300,1472
11.7320,2544
11.7340,1408
11.7360,1920
11.7380,1616
11.7400,1248
11.7420,1040
11.7440,976
11.7460,1456
11.7480,1040
11.7500,1328
11.7520,1472
11.7540,864
11.7560,784
11.7580,1248
11.7600,960
11.7620,1600
11.7640,1616
11.7660,1024
11.7680,11346
11.7700,13315
11.7720,864
11.7740,3280
11.7760,2240
11.7780,2608
11.7800,864
11.7820,944
11.7840,1440
11.7860,1440
11.7880,1024
11.7900,1088
11.7920,784
11.7940,1040
11.7960,1056
11.7980,816
11.8000,1120
11.8020,1344
11.8040,2384
11.8060,1152
11.8080,1296
11.8100,720
11.8120,864
11.8140,1744
11.8160,1904
11.8180,1248
11.8200,928
11.8220,1296
11.8240,1072
11.8260,832
11.8280,1504
11.8300,1600
11.8320,976
11.8340,1088
11.8360,1488
11.8380,1728
11.8400,896
11.8420,1232
11.8440,2400
11.8460,1216
11.8480,1488
11.8500,1616
11.8520,1728
11.8540,1088
11.8560,5313
11.8580,1744
11.8600,1216
11.8620,10114
11.8640,2880
11.8660,2960
11.8680,1888
11.8700,1504
11.8720,1056
11.8740,2208
11.8760,2208
11.8780,1616
11.8800,1200
11.8820,1360
11.8840,1408
11.8860,1200
11.8880,1216
11.8900,1552
11.8920,1936
11.8940,1856
11.8960,816
11.8980,1552
11.9000,1808
11.9020,1248
11.9040,1712
11.9060,2448
11.9080,864
11.9100,672
11.9120,1088
11.9140,1984
11.9160,2256
11.9180,1120
11.9200,1424
11.9220,1552
11.9240,1712
11.9260,1168
11.9280,832
11.9300,5905
11.9320,7249
11.9340,1280
11.9360,1120
11.9380,3344
11.9400,9730
11.9420,17108
11.9440,912
11.9460,1152
11.9480,688
11.9500,912
11.9520,1200
11.9540,960
11.9560,1216
11.9580,1072
11.9600,864
11.9620,1104
11.9640,1488
11.9660,1152
11.9680,1264
11.9700,1552
11.9720,2784
11.9740,4897
11.9760,944
11.9780,1120
11.9800,1152
11.9820,1504
11.9840,1408
11.9860,912
11.9880,912
11.9900,1728
11.9920,2416
11.9940,1152
11.9960,1088
11.9980,1040
12.0000,4481
12.0020,848
12.0040,1280
12.0060,1232
12.0080,1024
12.0100,736
12.0120,704
12.0140,1328
12.0160,1232
12.0180,768
12.0200,800
12.0220,1056
12.0240,912
12.0260,1072
12.0280,1088
12.0300,1216
12.0320,1344
12.0340,1120
12.0360,2816
12.0380,2608
12.0400,688
12.0420,992
12.0440,1472
12.0460,9442
12.0480,5217
12.0500,1248
12.0520,976
12.0540,1040
12.0560,1552
12.0580,848
12.0600,7553
12.0620,9714
12.0640,1120
12.0660,1056
12.0680,976
12.0700,1344
12.0720,1104
12.0740,800
12.0760,1216
12.0780,1248
12.0800,1456
12.0820,1056
12.0840,1248
12.0860,1584
12.0880,1392
12.0900,1200
12.0920,912
12.0940,1104
12.0960,1264
12.0980,1616
12.1000,1104
12.1020,4833
12.1040,1200
12.1060,1120
12.1080,1168
12.1100,1120
12.1120,720
12.1140,832
12.1160,1312
12.1180,1200
12.1200,1104
12.1220,976
12.1240,1216
12.1260,928
12.1280,960
12.1300,912
12.1320,2592
12.1340,992
12.1360,1424
12.1380,928
12.1400,5073
12.1420,2736
12.1440,2096
12.1460,1232
12.1480,1040
12.1500,1408
12.1520,912
12.1540,896
12.1560,1040
12.1580,1056
12.1600,1184
12.1620,1296
12.1640,1280
12.1660,816
12.1680,2704
12.1700,1680
12.1720,1104
12.1740,1792
12.1760,3312
12.1780,2080
12.1800,1168
12.1820,1008
12.1840,1312
12.1860,864
12.1880,1104
12.1900,1264
12.1920,6673
12.1940,5633
12.1960,5601
12.1980,816
12.2000,1680
12.2020,14643
12.2040,16580
12.2060,2592
12.2080,1040
12.2100,1056
12.2120,2368
12.2140,3488
12.2160,1488
12.2180,1424
12.2200,912
12.2220,1248
12.2240,2960
12.2260,2160
12.2280,1344
12.2300,1296
12.2320,1056
12.2340,1712
12.2360,1264
12.2380,1440
12.2400,1664
12.2420,2128
12.2440,1280
12.2460,1472
12.2480,976
12.2500,1280
12.2520,800
12.2540,1248
12.2560,800
12.2580,1216
12.2600,688
12.2620,1696
12.2640,1552
12.2660,752
12.2680,1488
12.2700,1344
12.2720,4449
12.2740,1600
12.2760,8674
12.2780,2704
12.2800,1440
12.2820,1904
12.2840,1184
12.2860,1504
12.2880,928
12.2900,816
12.2920,1856
12.2940,1040
12.2960,800
12.2980,3536
12.3000,6481
12.3020,2240
12.3040,1936
12.3060,1072
12.3080,7521
12.3100,2224
12.3120,944
12.3140,1808
12.3160,1216
12.3180,3392
12.3200,1424
12.3220,4129
12.3240,1440
12.3260,1152
12.3280,2800
12.3300,2816
12.3320,1264
12.3340,1616
12.3360,1664
12.3380,784
12.3400,960
12.3420,912
12.3440,1824
12.3460,1168
12.3480,1312
12.3500,1184
12.3520,5921
12.3540,1712
12.3560,4625
12.3580,960
12.3600,1792
12.3620,2272
12.3640,1072
12.3660,816
12.3680,1296
12.3700,2096
12.3720,1312
12.3740,2464
12.3760,2480
12.3780,688
12.3800,1152
12.3820,1184
12.3840,1936
12.3860,1280
12.3880,1376
12.3900,7457
12.3920,2560
12.3940,1344
12.3960,848
12.3980,1104
12.4000,1888
12.4020,1072
12.4040,2112
12.4060,1168
12.4080,736
12.4100,1440
12.4120,4481
12.4140,1264
12.4160,2336
12.4180,1456
12.4200,1408
12.4220,688
12.4240,2080
12.4260,912
12.4280,800
12.4300,1120
12.4320,2672
12.4340,1200
12.4360,7441
12.4380,5825
12.4400,1328
12.4420,1584
12.4440,2096
12.4460,1600
12.4480,1024
12.4500,848
12.4520,1024
12.4540,1344
12.4560,1072
12.4580,1392
12.4600,928
12.4620,1136
12.4640,992
12.4660,1344
12.4680,928
12.4700,1344
12.4720,1184
12.4740,896
12.4760,1008
12.4780,1232
12.4800,1328
12.4820,1488
12.4840,1280
12.4860,1168
12.4880,1472
12.4900,1408
12.4920,1056
12.4940,3280
12.4960,1360
12.4980,1104
12.5000,1440
12.5020,1200
12.5040,1216
12.5060,1040
12.5080,1120
12.5100,1152
12.5120,832
12.5140,1456
12.5160,1104
12.5180,1008
12.5200,912
12.5220,1168
12.5240,2224
12.5260,1024
12.5280,1248
12.5300,944
12.5320,1040
12.5340,1104
12.5360,1472
12.5380,1696
12.5400,1440
12.5420,992
12.5440,832
12.5460,992
12.5480,1600
12.5500,1440
12.5520,1184
12.5540,928
12.5560,1152
12.5580,1888
12.5600,784
12.5620,1120
12.5640,1744
12.5660,1680
12.5680,1568
12.5700,1296
12.5720,912
12.5740,1104
12.5760,720
12.5780,1248
12.5800,1504
12.5820,1056
12.5840,1072
12.5860,1072
12.5880,960
12.5900,1312
12.5920,6001
12.5940,4161
12.5960,1104
12.5980,1360
12.6000,880
12.6020,3184
12.6040,928
12.6060,1216
12.6080,1344
12.6100,10146
12.6120,10338
12.6140,12162
12.6160,14403
12.6180,1504
12.6200,1472
12.6220,1296
12.6240,1184
12.6260,1968
12.6280,912
12.6300,1312
12.6320,976
12.6340,1072
12.6360,992
12.6380,1216
12.6400,912
12.6420,1168
12.6440,1440
12.6460,944
12.6480,1360
12.6500,1360
12.6520,896
12.6540,912
12.6560,1440
12.6580,5249
12.6600,2192
12.6620,1552
12.6640,1104
12.6660,1120
12.6680,1072
12.6700,1056
12.6720,6401
12.6740,5649
12.6760,2400
12.6780,1120
12.6800,1360
12.6820,1664
12.6840,992
12.6860,848
12.6880,1584
12.6900,1072
12.6920,1296
12.6940,800
12.6960,1216
12.6980,800
12.7000,2176
12.7020,1312
12.7040,2576
12.7060,1744
12.7080,832
12.7100,976
12.7120,1792
12.7140,1296
12.7160,1184
12.7180,1056
12.7200,800
12.7220,1280
12.7240,672
12.7260,1248
12.7280,1088
12.7300,864
12.7320,1664
12.7340,1344
12.7360,1616
12.7380,944
12.7400,1312
12.7420,800
12.7440,5777
12.7460,1328
12.7480,896
12.7500,1344
12.7520,928
12.7540,1456
12.7560,848
12.7580,976
12.7600,1200
12.7620,1344
12.7640,1616
12.7660,1360
12.7680,1696
12.7700,1200
12.7720,944
12.7740,1088
12.7760,1040
12.7780,784
12.7800,1168
12.7820,1552
12.7840,1440
12.7860,3984
12.7880,832
12.7900,1360
12.7920,3232
12.7940,1920
12.7960,896
12.7980,1040
12.8000,2432
12.8020,2880
12.8040,1504
12.8060,4897
12.8080,1168
12.8100,1792
12.8120,848
12.8140,1600
12.8160,1376
12.8180,816
12.8200,1360
12.8220,2160
12.8240,1088
12.8260,1360
12.8280,1936
12.8300,1312
12.8320,1552
12.8340,1232
12.8360,1312
12.8380,2656
12.8400,1216
12.8420,1808
12.8440,3712
12.8460,1728
12.8480,992
12.8500,816
12.8520,1216
12.8540,2080
12.8560,1120
12.8580,976
12.8600,1280
12.8620,784
12.8640,1072
12.8660,1056
12.8680,1072
12.8700,1184
12.8720,1440
12.8740,1104
12.8760,848
12.8780,1536
12.8800,976
12.8820,720
12.8840,704
12.8860,3072
12.8880,1680
12.8900,1168
12.8920,1184
12.8940,3040
12.8960,1232
12.8980,1136
12.9000,1312
12.9020,1200
12.9040,1296
12.9060,960
12.9080,832
12.9100,1248
12.9120,944
12.9140,1584
12.9160,2000
12.9180,2064
12.9200,1280
12.9220,736
12.9240,1104
12.9260,1296
12.9280,960
12.9300,608
12.9320,1200
12.9340,1280
12.9360,2000
12.9380,1472
12.9400,1728
12.9420,1040
12.9440,2160
12.9460,1168
12.9480,1024
12.9500,2112
12.9520,736
12.9540,992
12.9560,1136
12.9580,1936
12.9600,1008
12.9620,2912
12.9640,992
12.9660,1440
12.9680,1536
12.9700,1088
12.9720,1008
12.9740,1024
12.9760,768
12.9780,1184
12.9800,1360
12.9820,1376
12.9840,944
12.9860,784
12.9880,992
12.9900,1040
12.9920,1248
12.9940,1280
12.9960,976
12.9980,1888
13.0000,1504
13.0020,1376
13.0040,784
13.0060,1344
13.0080,2832
13.0100,1872
13.0120,912
13.0140,1312
13.0160,1120
13.0180,1216
13.0200,1072
13.0220,832
13.0240,1184
13.0260,1072
13.0280,928
13.0300,1216
13.0320,1216
13.0340,1808
13.0360,1376
13.0380,1200
13.0400,2464
13.0420,5345
13.0440,1344
13.0460,2336
13.0480,864
13.0500,1600
13.0520,2000
13.0540,1296
13.0560,2144
13.0580,2144
13.0600,736
13.0620,1136
13.0640,2576
13.0660,1680
13.0680,1872
13.0700,832
13.0720,1120
13.0740,1360
13.0760,1664
13.0780,5649
13.0800,8065
13.0820,2208
13.0840,1024
13.0860,976
13.0880,3728
13.0900,832
13.0920,848
13.0940,1152
13.0960,1216
13.0980,1360
13.1000,2160
13.1020,1360
13.1040,1360
13.1060,1104
13.1080,4545
13.1100,3712
13.1120,784
13.1140,2688
13.1160,1328
13.1180,1232
13.1200,992
13.1220,1040
13.1240,800
13.1260,1152
13.1280,960
13.1300,736
13.1320,1280
13.1340,1360
13.1360,976
13.1380,1056
13.1400,1040
13.1420,1216
13.1440,2144
13.1460,1744
13.1480,1136
13.1500,960
13.1520,1024
13.1540,848
13.1560,2192
13.1580,1152
13.1600,3168
13.1620,5521
13.1640,1248
13.1660,1088
13.1680,848
13.1700,1312
13.1720,1552
13.1740,1920
13.1760,1552
13.1780,1056
13.1800,1456
13.1820,1040
13.1840,1088
13.1860,1840
13.1880,2656
13.1900,1344
13.1920,864
13.1940,960
13.1960,1216
13.1980,4481
13.2000,1680
13.2020,1248
13.2040,1184
13.2060,1088
13.2080,1328
13.2100,1264
13.2120,944
13.2140,720
13.2160,1536
13.2180,1680
13.2200,928
13.2220,1168
13.2240,2016
13.2260,784
13.2280,800
13.2300,1840
13.2320,2496
13.2340,1392
13.2360,928
13.2380,768
13.2400,3808
13.2420,1792
13.2440,1232
13.2460,1456
13.2480,3216
13.2500,6113
13.2520,1216
13.2540,944
13.2560,1040
13.2580,832
13.2600,1168
13.2620,1312
13.2640,992
13.2660,1216
13.2680,992
13.2700,1504
13.2720,1008
13.2740,864
13.2760,1184
13.2780,720
13.2800,896
13.2820,640
13.2840,928
13.2860,1600
13.2880,1040
13.2900,1344
13.2920,1200
13.2940,2752
13.2960,1376
13.2980,1440
13.3000,1568
13.3020,1120
13.3040,1168
13.3060,912
13.3080,768
13.3100,912
13.3120,1280
13.3140,1664
13.3160,1216
13.3180,560
13.3200,1408
13.3220,800
13.3240,1200
13.3260,1152
13.3280,816
13.3300,5041
13.3320,1648
13.3340,10674
13.3360,1424
13.3380,1056
13.3400,1456
13.3420,2128
13.3440,1136
13.3460,832
13.3480,5057
13.3500,4705
13.3520,960
13.3540,864
13.3560,1120
13.3580,1840
13.3600,1936
13.3620,2720
13.3640,1440
13.3660,3392
13.3680,1824
13.3700,1568
13.3720,688
13.3740,3088
13.3760,1472
13.3780,1344
13.3800,960
13.3820,800
13.3840,1088
13.3860,1232
13.3880,1248
13.3900,1440
13.3920,2624
13.3940,2000
13.3960,816
13.3980,1200
13.4000,1216
13.4020,1104
13.4040,1040
13.4060,1424
13.4080,960
13.4100,1456
13.4120,960
13.4140,832
13.4160,1184
13.4180,960
13.4200,1424
13.4220,3424
13.4240,4753
13.4260,4673
13.4280,3984
13.4300,1680
13.4320,2464
13.4340,1216
13.4360,944
13.4380,1040
13.4400,976
13.4420,1504
13.4440,832
13.4460,1120
13.4480,832
13.4500,928
13.4520,1184
13.4540,5329
13.4560,7249
13.4580,7313
13.4600,2304
13.4620,4833
13.4640,960
13.4660,816
13.4680,944
13.4700,1472
13.4720,1424
13.4740,1872
13.4760,1360
13.4780,1280
13.4800,1232
13.4820,1536
13.4840,1168
13.4860,1168
13.4880,1344
13.4900,1152
13.4920,1424
13.4940,976
13.4960,912
13.4980,1728
13.5000,1088
13.5020,928
13.5040,1072
13.5060,800
13.5080,1088
13.5100,1232
13.5120,1296
13.5140,1056
13.5160,4449
13.5180,7761
13.5200,4705
13.5220,2912
13.5240,6833
13.5260,1408
13.5280,704
13.5300,928
13.5320,1152
13.5340,992
13.5360,1488
13.5380,1040
13.5400,1264
13.5420,1088
13.5440,2496
13.5460,1280
13.5480,1264
13.5500,1920
13.5520,1056
13.5540,2896
13.5560,1040
13.5580,1248
13.5600,1200
13.5620,768
13.5640,6977
13.5660,3264
13.5680,1168
13.5700,1232
13.5720,1936
13.5740,880
13.5760,1040
13.5780,1072
13.5800,896
13.5820,1184
13.5840,8642
13.5860,3296
13.5880,864
13.5900,832
13.5920,944
13.5940,1152
13.5960,1568
13.5980,1248
13.6000,1344
13.6020,1344
13.6040,1104
13.6060,1136
13.6080,1152
13.6100,1248
13.6120,1104
13.6140,1088
13.6160,1152
13.6180,912
13.6200,1184
13.6220,1168
13.6240,2352
13.6260,912
13.6280,3776
13.6300,1296
13.6320,3760
13.6340,928
13.6360,1216
13.6380,2736
13.6400,1424
13.6420,1264
13.6440,5809
13.6460,3920
13.6480,1440
13.6500,1280
13.6520,1664
13.6540,1168
13.6560,1472
13.6580,1120
13.6600,1296
13.6620,1216
13.6640,1312
13.6660,1168
13.6680,3664
13.6700,1632
13.6720,848
13.6740,1104
13.6760,1168
13.6780,1280
13.6800,1664
13.6820,1120
13.6840,1184
13.6860,1024
13.6880,1360
13.6900,1168
13.6920,1376
13.6940,1184
13.6960,1504
13.6980,1168
13.7000,800
13.7020,1632
13.7040,1456
13.7060,1232
13.7080,864
13.7100,1184
13.7120,1920
13.7140,1936
13.7160,1472
13.7180,1408
13.7200,1520
13.7220,960
13.7240,1280
13.7260,784
13.7280,1008
13.7300,1088
13.7320,1328
13.7340,1744
13.7360,5553
13.7380,1488
13.7400,2832
13.7420,1280
13.7440,1456
13.7460,1456
13.7480,816
13.7500,960
13.7520,2272
13.7540,1008
13.7560,832
13.7580,1280
13.7600,1184
13.7620,672
13.7640,960
13.7660,976
13.7680,1024
13.7700,976
13.7720,1232
13.7740,1200
13.7760,1104
13.7780,992
13.7800,4529
13.7820,1328
13.7840,1024
13.7860,992
13.7880,1376
13.7900,1232
13.7920,1168
13.7940,832
13.7960,1040
13.7980,688
13.8000,1072
13.8020,1072
13.8040,1152
13.8060,1056
13.8080,1296
13.8100,3488
13.8120,944
13.8140,1968
13.8160,3456
13.8180,6497
13.8200,1216
13.8220,1152
13.8240,896
13.8260,3328
13.8280,5569
13.8300,8177
13.8320,1152
13.8340,1808
13.8360,1856
13.8380,1104
13.8400,752
13.8420,816
13.8440,1040
13.8460,1312
13.8480,1104
13.8500,1200
13.8520,1024
13.8540,784
13.8560,1888
13.8580,1024
13.8600,1344
13.8620,912
13.8640,1136
13.8660,736
13.8680,1088
13.8700,2272
13.8720,928
13.8740,1088
13.8760,912
13.8780,1088
13.8800,1216
13.8820,1184
13.8840,800
13.8860,1296
13.8880,1600
13.8900,1104
13.8920,864
13.8940,1376
13.8960,1120
13.8980,704
13.9000,832
13.9020,1104
13.9040,1232
13.9060,1184
13.9080,2256
13.9100,800
13.9120,1520
13.9140,816
13.9160,1120
13.9180,1600
13.9200,1248
13.9220,2592
13.9240,1712
13.9260,1072
13.9280,1424
13.9300,5025
13.9320,736
13.9340,2176
13.9360,1152
13.9380,2336
13.9400,2928
13.9420,1056
13.9440,3840
13.9460,2352
13.9480,1040
13.9500,1120
13.9520,1072
13.9540,1552
13.9560,1536
13.9580,1104
13.9600,1248
13.9620,784
13.9640,4529
13.9660,3328
13.9680,944
13.9700,1200
13.9720,800
13.9740,1152
13.9760,1200
13.9780,1360
13.9800,2048
13.9820,4097
13.9840,13859
13.9860,960
13.9880,1248
13.9900,1600
13.9920,1344
13.9940,912
13.9960,1216
13.9980,1472
14.0000,1120
14.0020,1088
14.0040,3280
14.0060,1184
14.0080,1056
14.0100,1280
14.0120,1072
14.0140,1200
14.0160,1168
14.0180,1328
14.0200,1808
14.0220,1824
14.0240,832
14.0260,1072
14.0280,960
14.0300,2544
14.0320,3392
14.0340,1712
14.0360,2304
14.0380,960
14.0400,1488
14.0420,944
14.0440,6081
14.0460,5217
14.0480,1120
14.0500,1328
14.0520,736
14.0540,912
14.0560,1168
14.0580,784
14.0600,928
14.0620,1104
14.0640,1104
14.0660,1184
14.0680,3024
14.0700,1376
14.0720,1248
14.0740,1184
14.0760,1072
14.0780,992
14.0800,1232
14.0820,1696
14.0840,736
14.0860,1232
14.0880,960
14.0900,992
14.0920,3232
14.0940,832
14.0960,912
14.0980,1248
14.1000,640
14.1020,960
14.1040,13267
14.1060,6593
14.1080,1312
14.1100,944
14.1120,1312
14.1140,1152
14.1160,816
14.1180,1440
14.1200,960
14.1220,1440
14.1240,1568
14.1260,1040
14.1280,1168
14.1300,768
14.1320,768
14.1340,1120
14.1360,704
14.1380,1232
14.1400,2000
14.1420,944
14.1440,1168
14.1460,944
14.1480,1376
14.1500,1184
14.1520,912
14.1540,1296
14.1560,3664
14.1580,2400
14.1600,1152
14.1620,1184
14.1640,976
14.1660,1184
14.1680,864
14.1700,1184
14.1720,1152
14.1740,1216
14.1760,720
14.1780,1968
14.1800,896
14.1820,1472
14.1840,1200
14.1860,1696
14.1880,1232
14.1900,1280
14.1920,1312
14.1940,768
14.1960,1072
14.1980,2304
14.2000,2336
14.2020,848
14.2040,1328
14.2060,4129
14.2080,1360
14.2100,1200
14.2120,1296
14.2140,2064
14.2160,1360
14.2180,1504
14.2200,1792
14.2220,720
14.2240,5185
14.2260,4353
14.2280,1280
14.2300,1360
14.2320,7473
14.2340,12819
14.2360,1408
14.2380,1280
14.2400,976
14.2420,736
14.2440,1408
14.2460,1040
14.2480,1024
14.2500,1088
14.2520,1504
14.2540,896
14.2560,976
14.2580,1424
14.2600,928
14.2620,768
14.2640,848
14.2660,1664
14.2680,1248
14.2700,1216
14.2720,896
14.2740,784
14.2760,1168
14.2780,1120
14.2800,1024
14.2820,1952
14.2840,4193
14.2860,6497
14.2880,1120
14.2900,1120
14.2920,1072
14.2940,816
14.2960,1696
14.2980,864
14.3000,1312
14.3020,2112
14.3040,896
14.3060,1344
14.3080,13779
14.3100,944
14.3120,912
14.3140,3360
14.3160,1808
14.3180,1296
14.3200,816
14.3220,928
14.3240,1168
14.3260,1200
14.3280,848
14.3300,864
14.3320,896
14.3340,1088
14.3360,976
14.3380,1568
14.3400,1168
14.3420,2304
14.3440,1328
14.3460,848
14.3480,1280
14.3500,1024
14.3520,1392
14.3540,1744
14.3560,6801
14.3580,8562
14.3600,1024
14.3620,928
14.3640,928
14.3660,1840
14.3680,1536
14.3700,2048
14.3720,1472
14.3740,912
14.3760,1600
14.3780,1632
14.3800,944
14.3820,1216
14.3840,1936
14.3860,1264
14.3880,1680
14.3900,1872
14.3920,1184
14.3940,656
14.3960,784
14.3980,1568
14.4000,1824
14.4020,1344
14.4040,896
14.4060,992
14.4080,1840
14.4100,544
14.4120,3680
14.4140,5329
14.4160,976
14.4180,2048
14.4200,5169
14.4220,1152
14.4240,848
14.4260,1264
14.4280,1120
14.4300,1056
14.4320,1616
14.4340,1600
14.4360,928
14.4380,848
14.4400,2336
14.4420,1472
14.4440,960
14.4460,1360
14.4480,912
14.4500,800
14.4520,1104
14.4540,1440
14.4560,784
14.4580,976
14.4600,1200
14.4620,864
14.4640,784
14.4660,1376
14.4680,1344
14.4700,1216
14.4720,1280
14.4740,704
14.4760,1344
14.4780,1040
14.4800,848
14.4820,1296
14.4840,1184
14.4860,1408
14.4880,1296
14.4900,1104
14.4920,1152
14.4940,2784
14.4960,1328
14.4980,7345
14.5000,1248
14.5020,2192
14.5040,1040
14.5060,960
14.5080,1504
14.5100,928
14.5120,2208
14.5140,1968
14.5160,1392
14.5180,1936
14.5200,2224
14.5220,1040
14.5240,832
14.5260,960
14.5280,1728
14.5300,5857
14.5320,1952
14.5340,1296
14.5360,1536
14.5380,1360
14.5400,1728
14.5420,1472
14.5440,912
14.5460,1664
14.5480,1216
14.5500,1040
14.5520,1104
14.5540,592
14.5560,1248
14.5580,2960
14.5600,1936
14.5620,960
14.5640,2000
14.5660,1120
14.5680,1248
14.5700,1360
14.5720,1056
14.5740,880
14.5760,816
14.5780,912
14.5800,1280
14.5820,736
14.5840,1168
14.5860,1344
14.5880,1680
14.5900,896
14.5920,1040
14.5940,1344
14.5960,928
14.5980,1200
14.6000,1008
14.6020,1232
14.6040,896
14.6060,1504
14.6080,1600
14.6100,6449
14.6120,1392
14.6140,1488
14.6160,1472
14.6180,1680
14.6200,2032
14.6220,1024
14.6240,5025
14.6260,688
14.6280,4433
14.6300,2512
14.6320,912
14.6340,3360
14.6360,1424
14.6380,1472
14.6400,1024
14.6420,928
14.6440,1152
14.6460,992
14.6480,1104
14.6500,832
14.6520,656
14.6540,1280
14.6560,1184
14.6580,976
14.6600,1248
14.6620,752
14.6640,1760
14.6660,1456
14.6680,1088
14.6700,864
14.6720,7121
14.6740,8866
14.6760,1968
14.6780,1280
14.6800,1104
14.6820,704
14.6840,1504
14.6860,1296
14.6880,1120
14.6900,848
14.6920,1152
14.6940,864
14.6960,1072
14.6980,1536
14.7000,1248
14.7020,832
14.7040,784
14.7060,1040
14.7080,2704
14.7100,1568
14.7120,816
14.7140,1104
14.7160,1040
14.7180,1696
14.7200,976
14.7220,4145
14.7240,3264
14.7260,1680
14.7280,2480
14.7300,1200
14.7320,1296
14.7340,1200
14.7360,1520
14.7380,1024
14.7400,1184
14.7420,1056
14.7440,1632
14.7460,1120
14.7480,1056
14.7500,1088
14.7520,1520
14.7540,896
14.7560,1360
14.7580,1360
14.7600,1264
14.7620,1120
14.7640,1248
14.7660,1200
14.7680,720
14.7700,480
14.7720,1168
14.7740,1440
14.7760,1568
14.7780,1296
14.7800,1392
14.7820,1264
14.7840,816
14.7860,816
14.7880,1216
14.7900,976
14.7920,864
14.7940,1104
14.7960,1168
14.7980,1184
14.8000,1376
14.8020,848
14.8040,1856
14.8060,912
14.8080,1488
14.8100,1328
14.8120,1232
14.8140,912
14.8160,1424
14.8180,1216
14.8200,1584
14.8220,1072
14.8240,6193
14.8260,3600
14.8280,848
14.8300,1088
14.8320,1424
14.8340,3280
14.8360,1600
14.8380,1168
14.8400,928
14.8420,1440
14.8440,1248
14.8460,896
14.8480,800
14.8500,1696
14.8520,1200
14.8540,1264
14.8560,992
14.8580,1328
14.8600,1424
14.8620,1152
14.8640,1600
14.8660,6545
14.8680,13027
14.8700,1584
14.8720,1056
14.8740,1168
14.8760,896
14.8780,672
14.8800,1488
14.8820,2272
14.8840,3136
14.8860,1856
14.8880,1920
14.8900,992
14.8920,1088
14.8940,1168
14.8960,1088
14.8980,1152
14.9000,1184
14.9020,1888
14.9040,1056
14.9060,1216
14.9080,976
14.9100,2048
14.9120,1248
14.9140,2096
14.9160,1296
14.9180,1040
14.9200,1216
14.9220,1408
14.9240,2048
14.9260,1728
14.9280,2240
14.9300,1024
14.9320,1184
14.9340,2480
14.9360,2272
14.9380,2048
14.9400,1104
14.9420,1152
14.9440,656
14.9460,1088
14.9480,1056
14.9500,1056
14.9520,1072
14.9540,2896
14.9560,1248
14.9580,896
14.9600,1552
14.9620,1168
14.9640,1280
14.9660,688
14.9680,1696
14.9700,1232
14.9720,736
14.9740,704
14.9760,1280
14.9780,912
14.9800,1152
14.9820,1056
14.9840,1360
14.9860,1040
14.9880,976
14.9900,1216
14.9920,1088
14.9940,896
14.9960,3296
14.9980,1584
15.0000,3328
15.0020,3936
15.0040,768
15.0060,912
15.0080,816
15.0100,1472
15.0120,1312
15.0140,816
15.0160,880
15.0180,912
15.0200,3360
15.0220,5969
15.0240,1008
15.0260,1152
15.0280,5313
15.0300,4529
15.0320,1168
15.0340,656
15.0360,880
15.0380,1696
15.0400,2256
15.0420,1824
15.0440,960
15.0460,1200
15.0480,2080
15.0500,768
15.0520,1264
15.0540,1120
15.0560,912
15.0580,784
15.0600,960
15.0620,832
15.0640,768
15.0660,1472
15.0680,2528
15.0700,1456
15.0720,1472
15.0740,1248
15.0760,1152
15.0780,1104
15.0800,1248
15.0820,1456
15.0840,1136
15.0860,1440
15.0880,1056
15.0900,1184
15.0920,1168
15.0940,1040
15.0960,1024
15.0980,1200
15.1000,992
15.1020,864
15.1040,1216
15.1060,1056
15.1080,1056
15.1100,1088
15.1120,976
15.1140,4000
15.1160,1200
15.1180,960
15.1200,1232
15.1220,1072
15.1240,960
15.1260,2384
15.1280,1456
15.1300,1312
15.1320,864
15.1340,736
15.1360,1216
15.1380,1408
15.1400,1616
15.1420,1152
15.1440,1408
15.1460,1792
15.1480,1072
15.1500,816
15.1520,1808
15.1540,1184
15.1560,688
15.1580,1104
15.1600,2352
15.1620,1744
15.1640,1184
15.1660,1968
15.1680,1040
15.1700,1552
15.1720,848
15.1740,1024
15.1760,864
15.1780,1040
15.1800,1232
15.1820,1936
15.1840,1056
15.1860,1024
15.1880,1104
15.1900,784
15.1920,1184
15.1940,912
15.1960,608
15.1980,704
15.2000,1504
15.2020,800
15.2040,1088
15.2060,1440
15.2080,832
15.2100,896
15.2120,2320
15.2140,1328
15.2160,896
15.2180,1616
15.2200,1888
15.2220,1088
15.2240,1104
15.2260,784
15.2280,960
15.2300,976
15.2320,1312
15.2340,960
15.2360,1264
15.2380,1312
15.2400,1216
15.2420,1744
15.2440,784
15.2460,1456
15.2480,1184
15.2500,1072
15.2520,1568
15.2540,1856
15.2560,4241
15.2580,6513
15.2600,7985
15.2620,2448
15.2640,2016
15.2660,912
15.2680,2608
15.2700,816
15.2720,1328
15.2740,832
15.2760,1216
15.2780,1232
15.2800,944
15.2820,1600
15.2840,928
15.2860,1568
15.2880,1216
15.2900,1456
15.2920,1120
15.2940,1056
15.2960,976
15.2980,784
15.3000,1456
15.3020,1328
15.3040,992
15.3060,1344
15.3080,1280
15.3100,1104
15.3120,912
15.3140,1376
15.3160,1296
15.3180,1840
15.3200,896
15.3220,1184
15.3240,880
15.3260,832
15.3280,1440
15.3300,848
15.3320,1232
15.3340,896
15.3360,2048
15.3380,1056
15.3400,1136
15.3420,1312
15.3440,864
15.3460,1024
15.3480,1728
15.3500,1280
15.3520,1184
15.3540,1360
15.3560,1568
15.3580,1088
15.3600,1984
15.3620,1184
15.3640,944
15.3660,1072
15.3680,864
15.3700,1504
15.3720,1184
15.3740,736
15.3760,1024
15.3780,1168
15.3800,1344
15.3820,1040
15.3840,1456
15.3860,1808
15.3880,3856
15.3900,960
15.3920,1280
15.3940,1184
15.3960,1696
15.3980,944
15.4000,1312
15.4020,1040
15.4040,1088
15.4060,1024
15.4080,864
15.4100,1168
15.4120,1488
15.4140,2304
15.4160,1632
15.4180,1440
15.4200,848
15.4220,688
15.4240,2832
15.4260,5969
15.4280,9650
15.4300,1552
15.4320,13027
15.4340,6977
15.4360,1680
15.4380,1312
15.4400,736
15.4420,832
15.4440,1056
15.4460,960
15.4480,912
15.4500,1376
15.4520,928
15.4540,1296
15.4560,944
15.4580,1296
15.4600,1280
15.4620,1248
15.4640,1696
15.4660,1696
15.4680,5169
15.4700,1024
15.4720,992
15.4740,720
15.4760,1344
15.4780,720
15.4800,912
15.4820,2464
15.4840,2432
15.4860,1232
15.4880,2000
15.4900,992
15.4920,1952
15.4940,2144
15.4960,2816
15.4980,880
15.5000,1920
15.5020,1200
15.5040,1376
15.5060,1232
15.5080,4689
15.5100,2464
15.5120,1120
15.5140,976
15.5160,1792
15.5180,1280
15.5200,1536
15.5220,1072
15.5240,1024
15.5260,1280
15.5280,1088
15.5300,1024
15.5320,928
15.5340,2448
15.5360,1456
15.5380,912
15.5400,784
15.5420,704
15.5440,1280
15.5460,1040
15.5480,1584
15.5500,1360
15.5520,1600
15.5540,992
15.5560,864
15.5580,1072
15.5600,1280
15.5620,1504
15.5640,1232
15.5660,1168
15.5680,1024
15.5700,1392
15.5720,1344
15.5740,1344
15.5760,992
15.5780,3072
15.5800,2224
15.5820,2864
15.5840,1184
15.5860,1376
15.5880,1280
15.5900,816
15.5920,976
15.5940,848
15.5960,1024
15.5980,1920
15.6000,1008
15.6020,1360
15.6040,1232
15.6060,976
15.6080,1184
15.6100,1280
15.6120,816
15.6140,1040
15.6160,1104
15.6180,1600
15.6200,2480
15.6220,1248
15.6240,1120
15.6260,960
15.6280,1344
15.6300,1232
15.6320,1200
15.6340,1344
15.6360,1712
15.6380,1280
15.6400,2608
15.6420,2384
15.6440,2288
15.6460,2928
15.6480,1216
15.6500,1376
15.6520,2608
15.6540,1168
15.6560,1024
15.6580,1696
15.6600,1520
15.6620,1152
15.6640,1616
15.6660,1536
15.6680,1024
15.6700,1408
15.6720,944
15.6740,1248
15.6760,848
15.6780,1040
15.6800,1440
15.6820,1136
15.6840,2128
15.6860,848
15.6880,1296
15.6900,1024
15.6920,1312
15.6940,816
15.6960,944
15.6980,1168
15.7000,1760
15.7020,960
15.7040,1360
15.7060,1136
15.7080,3280
15.7100,2848
15.7120,1056
15.7140,1680
15.7160,1296
15.7180,1824
15.7200,1424
15.7220,1872
15.7240,1024
15.7260,1344
15.7280,1104
15.7300,784
15.7320,1456
15.7340,1376
15.7360,1600
15.7380,912
15.7400,992
15.7420,992
15.7440,1744
15.7460,3904
15.7480,1920
15.7500,1760
15.7520,2464
15.7540,896
15.7560,1184
15.7580,1344
15.7600,1680
15.7620,2176
15.7640,2096
15.7660,2512
15.7680,1152
15.7700,1984
15.7720,1072
15.7740,1744
15.7760,1792
15.7780,3280
15.7800,2240
15.7820,976
15.7840,1024
15.7860,2256
15.7880,944
15.7900,1152
15.7920,992
15.7940,3408
15.7960,1344
15.7980,944
15.8000,1376
15.8020,1472
15.8040,1184
15.8060,1536
15.8080,1184
15.8100,1120
15.8120,4705
15.8140,6097
15.8160,2656
15.8180,7393
15.8200,2752
15.8220,1280
15.8240,1120
15.8260,1520
15.8280,1440
15.8300,1360
15.8320,992
15.8340,1920
15.8360,2880
15.8380,1408
15.8400,1344
15.8420,1744
15.8440,2352
15.8460,976
15.8480,1872
15.8500,1360
15.8520,1120
15.8540,1104
15.8560,2192
15.8580,1600
15.8600,1072
15.8620,1504
15.8640,1600
15.8660,1040
15.8680,1232
15.8700,1376
15.8720,1040
15.8740,960
15.8760,1184
15.8780,1024
15.8800,1968
15.8820,3120
15.8840,1344
15.8860,3760
15.8880,4497
15.8900,1568
15.8920,1424
15.8940,1248
15.8960,1760
15.8980,1376
15.9000,1328
15.9020,2400
15.9040,1056
15.9060,1040
15.9080,1424
15.9100,1168
15.9120,1232
15.9140,1440
15.9160,1472
15.9180,3680
15.9200,8466
15.9220,688
15.9240,816
15.9260,1168
15.9280,1840
15.9300,1088
15.9320,1184
15.9340,3088
15.9360,2560
15.9380,4913
15.9400,1616
15.9420,3648
15.9440,3248
15.9460,2560
15.9480,1200
15.9500,1552
15.9520,1248
15.9540,1216
15.9560,1616
15.9580,1808
15.9600,4369
15.9620,4064
15.9640,3680
15.9660,3152
15.9680,1376
15.9700,1568
15.9720,2256
15.9740,1504
15.9760,1536
15.9780,3968
15.9800,4785
15.9820,1680
15.9840,1584
15.9860,1872
15.9880,3040
15.9900,2496
15.9920,1488
15.9940,1648
15.9960,5489
15.9980,2544
16.0000,1232
16.0020,1184
16.0040,1488
16.0060,1344
16.0080,1424
16.0100,4929
16.0120,2112
16.0140,2160
16.0160,5537
16.0180,1344
16.0200,2560
16.0220,5377
16.0240,4097
16.0260,2704
16.0280,1872
16.0300,4273
16.0320,1200
16.0340,4433
16.0360,1184
16.0380,4545
16.0400,1280
16.0420,6081
16.0440,10050
16.0460,6017
16.0480,1968
16.0500,1632
16.0520,2192
16.0540,3472
16.0560,5889
16.0580,1488
16.0600,3648
16.0620,2528
16.0640,4177
16.0660,2128
16.0680,7041
16.0700,7153
16.0720,1632
16.0740,2192
16.0760,2208
16.0780,5281
16.0800,3216
16.0820,4961
16.0840,4897
16.0860,1840
16.0880,5681
16.0900,8354
16.0920,6465
16.0940,1120
16.0960,3360
16.0980,6401
16.1000,1248
16.1020,2144
16.1040,2000
16.1060,7425
16.1080,8033
16.1100,15651
16.1120,3968
16.1140,4080
16.1160,22805
16.1180,2064
16.1200,2144
16.1220,8498
16.1240,2592
16.1260,4673
16.1280,5009
16.1300,11442
16.1320,3200
16.1340,2256
16.1360,8129
16.1380,2608
16.1400,3616
16.1420,3472
16.1440,1920
16.1460,6993
16.1480,2064
16.1500,7873
16.1520,8177
16.1540,10274
16.1560,2464
16.1580,2048
16.1600,13427
16.1620,2048
16.1640,2320
16.1660,10818
16.1680,3136
16.1700,2800
16.1720,1616
16.1740,12755
16.1760,8226
16.1780,12242
16.1800,1488
16.1820,1632
16.1840,13971
16.1860,18388
16.1880,16916
16.1900,10690
16.1920,17988
16.1940,13315
16.1960,9794
16.1980,12210
16.2000,7313
16.2020,2720
16.2040,1696
16.2060,8898
16.2080,6065
16.2100,4753
16.2120,4641
16.2140,1872
16.2160,9058
16.2180,6145
16.2200,8226
16.2220,3968
16.2240,6289
16.2260,8161
16.2280,2528
16.2300,3808
16.2320,8177
16.2340,13763
16.2360,6049
16.2380,2384
16.2400,1344
16.2420,1456
16.2440,25142
16.2460,1872
16.2480,8226
16.2500,17092
16.2520,3040
16.2540,9666
16.2560,9506
16.2580,1424
16.2600,17892
16.2620,22581
16.2640,25270
16.2660,3936
16.2680,6945
16.2700,9090
16.2720,3168
16.2740,7489
16.2760,14883
16.2780,11650
16.2800,18964
16.2820,1360
16.2840,2400
16.2860,13027
16.2880,19732
16.2900,3904
16.2920,7169
16.2940,1744
16.2960,1680
16.2980,8113
16.3000,8322
16.3020,7361
16.3040,21205
16.3060,3296
16.3080,16564
16.3100,4897
16.3120,39705
16.3140,13923
16.3160,2128
16.3180,5249
16.3200,1168
16.3220,35608
16.3240,1392
16.3260,3536
16.3280,5777
16.3300,13123
16.3320,6689
16.3340,15683
16.3360,15731
16.3380,12515
16.3400,6449
16.3420,11298
16.3440,3760
16.3460,13763
16.3480,13091
16.3500,2112
16.3520,12371
16.3540,9122
16.3560,8882
16.3580,5921
16.3600,17508
16.3620,8081
16.3640,1872
16.3660,3680
16.3680,2176
16.3700,2960
16.3720,14083
16.3740,9938
16.3760,25126
16.3780,1328
16.3800,5697
16.3820,8177
16.3840,16099
16.3860,1376
16.3880,15459
16.3900,4609
16.3920,2720
16.3940,12739
16.3960,5729
16.3980,5009
16.4000,2864
16.4020,5905
16.4040,2224
16.4060,7377
16.4080,38297
16.4100,5937
16.4120,2016
16.4140,2944
16.4160,16788
16.4180,3408
16.4200,3664
16.4220,27718
16.4240,6401
16.4260,2512
16.4280,5713
16.4300,3744
16.4320,11074
16.4340,23061
16.4360,4769
16.4380,1360
16.4400,2192
16.4420,16099
16.4440,6817
16.4460,5009
16.4480,16836
16.4500,16484
16.4520,14195
16.4540,14979
16.4560,14131
16.4580,6113
16.4600,39897
16.4620,40473
16.4640,6257
16.4660,6657
16.4680,1696
16.4700,2112
16.4720,2176
16.4740,18100
16.4760,1360
16.4780,18772
16.4800,9778
16.4820,13875
16.4840,3344
16.4860,15091
16.4880,23749
16.4900,5265
16.4920,20116
16.4940,10866
16.4960,1808
16.4980,13459
16.5000,1840
16.5020,1744
16.5040,9042
16.5060,4417
16.5080,1728
16.5100,10018
16.5120,23349
16.5140,11426
16.5160,34872
16.5180,8226
16.5200,1808
16.5220,3664
16.5240,16708
16.5260,13123
16.5280,23509
16.5300,5777
16.5320,5457
16.5340,1248
16.5360,30519
16.5380,5297
16.5400,7217
16.5420,13747
16.5440,1312
16.5460,3392
16.5480,4113
16.5500,3408
16.5520,6113
16.5540,2224
16.5560,6529
16.5580,40793
16.5600,5649
16.5620,3920
16.5640,3056
16.5660,15187
16.5680,4145
16.5700,1664
16.5720,44442
16.5740,1712
16.5760,4513
16.5780,4689
16.5800,11570
16.5820,34776
16.5840,9362
16.5860,4305
16.5880,14307
16.5900,8402
16.5920,1552
16.5940,13747
16.5960,24261
16.5980,13555
16.6000,2064
16.6020,14275
16.6040,12435
16.6060,9266
16.6080,18052
16.6100,43178
16.6120,3120
16.6140,53597
16.6160,11682
16.6180,21109
16.6200,38041
16.6220,6337
16.6240,7841
16.6260,21733
16.6280,9426
16.6300,2288
16.6320,6417
16.6340,1824
16.6360,34104
16.6380,1632
16.6400,12371
16.6420,20901
16.6440,13507
16.6460,4641
16.6480,1296
16.6500,14435
16.6520,15299
16.6540,10162
16.6560,2592
16.6580,1760
16.6600,6721
16.6620,14947
16.6640,19124
16.6660,8210
16.6680,2256
16.6700,3440
16.6720,8594
16.6740,6401
16.6760,1472
16.6780,12162
16.6800,30423
16.6820,16083
16.6840,6273
16.6860,17428
16.6880,30375
16.6900,7217
16.6920,3792
16.6940,8978
16.6960,25862
16.6980,3008
16.7000,4849
16.7020,11570
16.7040,3232
16.7060,27670
16.7080,1808
16.7100,1968
16.7120,6817
16.7140,12178
16.7160,3456
16.7180,4945
16.7200,2224
16.7220,29959
16.7240,20757
16.7260,2368
16.7280,5121
16.7300,2784
16.7320,1040
16.7340,5841
16.7360,8898
16.7380,1712
16.7400,23301
16.7420,2320
16.7440,6529
16.7460,1600
16.7480,14355
16.7500,20773
16.7520,20837
16.7540,30423
16.7560,29351
16.7580,2544
16.7600,19092
16.7620,3152
16.7640,18260
16.7660,24565
16.7680,25350
16.7700,1376
16.7720,20036
16.7740,2016
16.7760,12771
16.7780,3136
16.7800,3760
16.7820,17076
16.7840,32984
16.7860,1968
16.7880,28646
16.7900,8338
16.7920,29239
16.7940,16211
16.7960,1600
16.7980,19892
16.8000,2352
16.8020,7633
16.8040,19604
16.8060,14739
16.8080,23509
16.8100,3216
16.8120,26262
16.8140,10882
16.8160,4433
16.8180,35208
16.8200,1744
16.8220,8161
16.8240,9906
16.8260,4881
16.8280,28807
16.8300,20805
16.8320,1712
16.8340,32007
16.8360,10434
16.8380,8386
16.8400,3424
16.8420,20180
16.8440,29735
16.8460,6737
16.8480,22165
16.8500,7137
16.8520,27350
16.8540,14131
16.8560,10674
16.8580,11010
16.8600,9618
16.8620,2768
16.8640,14675
16.8660,4881
16.8680,1120
16.8700,19380
16.8720,4369
16.8740,2832
16.8760,4641
16.8780,8994
16.8800,1616
16.8820,29191
16.8840,10018
16.8860,15667
16.8880,3744
16.8900,2496
16.8920,12435
16.8940,21445
16.8960,3600
16.8980,11586
16.9000,20388
16.9020,12851
16.9040,25958
16.9060,9666
16.9080,35240
16.9100,1712
16.9120,4161
16.9140,16436
16.9160,2448
16.9180,10370
16.9200,12963
16.9220,27078
16.9240,5889
16.9260,6593
16.9280,16099
16.9300,11538
16.9320,11554
16.9340,15907
16.9360,9282
16.9380,6737
16.9400,4369
16.9420,10114
16.9440,2272
16.9460,20148
16.9480,37913
16.9500,12307
16.9520,29943
16.9540,10978
16.9560,2832
16.9580,1824
16.9600,20068
16.9620,9890
16.9640,10498
16.9660,10082
16.9680,25254
16.9700,24149
16.9720,3856
16.9740,1280
16.9760,6081
16.9780,1504
16.9800,7249
16.9820,25238
16.9840,4241
16.9860,2528
16.9880,23717
16.9900,4801
16.9920,23269
16.9940,13187
16.9960,1632
16.9980,11218
17.0000,3408
17.0020,6273
17.0040,11314
17.0060,4080
17.0080,11570
17.0100,8177
17.0120,1424
17.0140,13635
17.0160,21845
17.0180,2432
17.0200,16964
17.0220,20372
17.0240,21765
17.0260,21701
17.0280,9010
17.0300,11858
17.0320,6673
17.0340,7105
17.0360,17476
17.0380,24549
17.0400,2000
17.0420,12883
17.0440,18708
17.0460,3568
17.0480,2016
17.0500,3360
17.0520,5985
17.0540,10402
17.0560,12162
17.0580,5569
17.0600,4961
17.0620,12178
17.0640,10210
17.0660,22325
17.0680,1568
17.0700,13491
17.0720,11218
17.0740,27126
17.0760,5953
17.0780,36424
17.0800,3984
17.0820,18276
17.0840,26918
17.0860,11922
17.0880,20789
17.0900,21925
17.0920,2464
17.0940,2096
17.0960,8177
17.0980,8081
17.1000,23925
17.1020,3360
17.1040,10434
17.1060,7569
17.1080,2928
17.1100,1344
17.1120,5313
17.1140,2848
17.1160,14243
17.1180,23637
17.1200,6801
17.1220,1568
17.1240,2832
17.1260,8081
17.1280,12771
17.1300,4689
17.1320,8706
17.1340,4449
17.1360,12595
17.1380,7393
17.1400,1936
17.1420,2448
17.1440,2256
17.1460,4225
17.1480,12867
17.1500,1264
17.1520,2768
17.1540,1744
17.1560,5313
17.1580,2816
17.1600,2576
17.1620,33032
17.1640,3872
17.1660,16404
17.1680,11042
17.1700,12659
17.1720,38921
17.1740,2176
17.1760,25798
17.1780,6625
17.1800,14867
17.1820,8802
17.1840,21509
17.1860,15251
17.1880,24389
17.1900,29927
17.1920,4305
17.1940,1824
17.1960,1632
17.1980,8930
17.2000,4561
17.2020,19508
17.2040,6193
17.2060,18308
17.2080,5025
17.2100,18228
17.2120,1968
17.2140,21893
17.2160,9362
17.2180,11810
17.2200,7377
17.2220,18900
17.2240,1600
17.2260,2112
17.2280,3888
17.2300,2896
17.2320,12819
17.2340,7569
17.2360,11986
17.2380,10242
17.2400,5201
17.2420,38969
17.2440,12995
17.2460,1728
17.2480,6273
17.2500,21509
17.2520,15763
17.2540,2384
17.2560,1568
17.2580,8450
17.2600,7921
17.2620,1808
17.2640,6321
17.2660,6193
17.2680,18068
17.2700,23909
17.2720,21061
17.2740,9906
17.2760,10306
17.2780,1200
17.2800,14243
17.2820,28759
17.2840,8850
17.2860,14611
17.2880,11698
17.2900,3456
17.2920,18260
17.2940,21749
17.2960,3488
17.2980,4353
17.3000,13363
17.3020,24213
17.3040,14947
17.3060,1424
17.3080,2656
17.3100,1760
17.3120,1744
17.3140,1328
17.3160,37465
17.3180,20132
17.3200,10530
17.3220,10418
17.3240,7441
17.3260,1680
17.3280,33048
17.3300,8738
17.3320,1488
17.3340,2064
17.3360,6721
17.3380,9602
17.3400,8226
17.3420,10162
17.3440,4817
17.3460,1920
17.3480,18340
17.3500,1712
17.3520,1728
17.3540,19812
17.3560,2768
17.3580,10578
17.3600,6369
17.3620,9602
17.3640,8770
17.3660,5441
17.3680,1968
17.3700,5937
17.3720,6849
17.3740,21125
17.3760,8946
17.3780,25974
17.3800,38825
17.3820,3904
17.3840,1808
17.3860,3984
17.3880,7937
17.3900,7697
17.3920,2496
17.3940,1536
17.3960,17444
17.3980,20100
17.4000,16371
17.4020,7201
17.4040,9730
17.4060,4048
17.4080,20196
17.4100,6065
17.4120,1856
17.4140,28006
17.4160,1968
17.4180,27398
17.4200,17204
17.4220,1824
17.4240,12355
17.4260,9330
17.4280,19364
17.4300,9570
17.4320,29639
17.4340,2336
17.4360,4289
17.4380,2336
17.4400,13395
17.4420,19220
17.4440,2352
17.4460,16772
17.4480,2064
17.4500,12851
17.4520,18964
17.4540,10434
17.4560,18212
17.4580,15459
17.4600,13363
17.4620,13459
17.4640,9106
17.4660,2112
17.4680,2848
17.4700,1312
17.4720,2928
17.4740,3744
17.4760,10418
17.4780,5393
17.4800,1200
17.4820,13251
17.4840,2224
17.4860,10450
17.4880,26534
17.4900,11714
17.4920,16291
17.4940,2464
17.4960,7233
17.4980,10914
17.5000,3808
17.5020,30503
17.5040,52940
17.5060,10402
17.5080,9730
17.5100,2352
17.5120,14851
17.5140,9778
17.5160,17172
17.5180,2896
17.5200,13123
17.5220,9602
17.5240,7505
17.5260,2320
17.5280,15267
17.5300,5857
17.5320,9762
17.5340,13763
17.5360,4289
17.5380,2848
17.5400,12883
17.5420,26566
17.5440,15651
17.5460,1936
17.5480,21861
17.5500,44410
17.5520,2976
17.5540,1232
17.5560,13059
17.5580,3136
17.5600,8065
17.5620,1808
17.5640,2240
17.5660,23013
17.5680,2592
17.5700,9122
17.5720,9394
17.5740,3552
17.5760,6465
17.5780,1536
17.5800,4353
17.5820,5649
17.5840,8226
17.5860,12451
17.5880,18660
17.5900,4225
17.5920,1120
17.5940,2576
17.5960,3152
17.5980,3312
17.6000,2064
17.6020,15331
17.6040,5873
17.6060,8258
17.6080,1456
17.6100,2432
17.6120,11490
17.6140,1216
17.6160,4545
17.6180,1808
17.6200,4209
17.6220,24469
17.6240,11698
17.6260,6001
17.6280,17556
17.6300,3136
17.6320,1376
17.6340,2624
17.6360,15571
17.6380,1184
17.6400,1440
17.6420,1264
17.6440,3712
17.6460,31831
17.6480,4193
17.6500,12355
17.6520,4897
17.6540,12098
17.6560,14467
17.6580,2096
17.6600,1728
17.6620,10546
17.6640,22213
17.6660,7585
17.6680,1280
17.6700,13411
17.6720,1184
17.6740,9954
17.6760,1440
17.6780,1216
17.6800,4016
17.6820,2848
17.6840,3472
17.6860,4048
17.6880,1664
17.6900,2000
17.6920,2608
17.6940,8770
17.6960,7169
17.6980,8578
17.7000,3760
17.7020,9154
17.7040,3536
17.7060,13459
17.7080,1312
17.7100,1328
17.7120,19860
17.7140,3680
17.7160,2912
17.7180,1632
17.7200,5857
17.7220,1808
17.7240,6513
17.7260,9394
17.7280,8001
17.7300,3904
17.7320,3616
17.7340,2928
17.7360,28406
17.7380,3008
17.7400,2064
17.7420,17108
17.7440,1600
17.7460,1424
17.7480,12307
17.7500,4048
17.7520,2128
17.7540,7617
17.7560,25910
17.7580,3856
17.7600,28358
17.7620,12066
17.7640,2112
17.7660,3728
17.7680,21973
17.7700,5041
17.7720,27478
17.7740,3520
17.7760,24582
17.7780,42858
17.7800,23509
17.7820,2624
17.7840,14163
17.7860,1936
17.7880,1888
17.7900,4113
17.7920,12034
17.7940,5201
17.7960,4401
17.7980,8145
17.8000,1680
17.8020,2048
17.8040,9346
17.8060,1408
17.8080,5073
17.8100,9666
17.8120,5633
17.8140,10066
17.8160,12691
17.8180,8290
17.8200,1472
17.8220,1312
17.8240,4000
17.8260,2480
17.8280,13923
17.8300,2864
17.8320,6881
17.8340,1712
17.8360,8177
17.8380,4273
17.8400,1728
17.8420,7185
17.8440,11138
17.8460,8834
17.8480,19476
17.8500,5553
17.8520,17204
17.8540,6833
17.8560,5585
17.8580,7745
17.8600,21957
17.8620,1856
17.8640,13251
17.8660,23141
17.8680,17044
17.8700,9746
17.8720,11234
17.8740,6433
17.8760,3760
17.8780,6881
17.8800,1552
17.8820,5185
17.8840,1680
17.8860,2176
17.8880,1328
17.8900,1584
17.8920,1808
17.8940,1056
17.8960,4241
17.8980,13459
17.9000,12867
17.9020,3632
17.9040,7233
17.9060,2784
17.9080,3280
17.9100,6273
17.9120,6369
17.9140,6145
17.9160,24838
17.9180,1280
17.9200,5521
17.9220,14387
17.9240,25798
17.9260,16452
17.9280,4129
17.9300,4881
17.9320,33096
17.9340,4497
17.9360,20436
17.9380,10082
17.9400,2848
17.9420,11218
17.9440,10450
17.9460,27942
17.9480,16420
17.9500,22725
17.9520,16115
17.9540,1232
17.9560,1360
17.9580,3344
17.9600,2256
17.9620,14243
17.9640,2080
17.9660,6977
17.9680,7169
17.9700,7073
17.9720,2544
17.9740,1312
17.9760,18052
17.9780,7617
17.9800,9554
17.9820,1376
17.9840,3504
17.9860,3744
17.9880,5473
17.9900,18036
17.9920,1440
17.9940,1568
17.9960,4481
17.9980,3840
18.0000,9042
18.0020,8738
18.0040,11266
18.0060,1376
18.0080,1408
18.0100,23573
18.0120,3552
18.0140,7585
18.0160,21061
18.0180,11538
18.0200,10338
18.0220,14867
18.0240,2512
18.0260,6529
18.0280,39353
18.0300,23429
18.0320,10274
18.0340,28839
18.0360,2208
18.0380,8210
18.0400,5585
18.0420,1584
18.0440,1184
18.0460,1104
18.0480,6433
18.0500,3472
18.0520,6961
18.0540,9778
18.0560,7185
18.0580,27398
18.0600,6481
18.0620,1616
18.0640,15747
18.0660,6305
18.0680,1488
18.0700,1184
18.0720,7537
18.0740,1664
18.0760,6433
18.0780,3088
18.0800,1696
18.0820,14291
18.0840,18068
18.0860,17220
18.0880,23477
18.0900,2656
18.0920,4145
18.0940,4945
18.0960,5697
18.0980,3232
18.1000,16163
18.1020,7745
18.1040,3424
18.1060,6625
18.1080,1232
18.1100,1824
18.1120,11042
18.1140,3552
18.1160,4353
18.1180,25046
18.1200,2304
18.1220,12787
18.1240,10834
18.1260,16355
18.1280,3600
18.1300,1408
18.1320,10450
18.1340,2992
18.1360,3904
18.1380,1408
18.1400,2128
18.1420,21445
18.1440,1424
18.1460,2704
18.1480,3040
18.1500,2064
18.1520,2400
18.1540,26310
18.1560,6481
18.1580,20773
18.1600,2496
18.1620,16772
18.1640,8210
18.1660,16163
18.1680,13715
18.1700,7041
18.1720,1744
18.1740,8177
18.1760,14307
18.1780,33448
18.1800,18996
18.1820,8674
18.1840,6081
18.1860,2384
18.1880,3712
18.1900,29591
18.1920,13875
18.1940,2048
18.1960,16275
18.1980,7009
18.2000,4016
18.2020,2912
18.2040,3904
18.2060,12739
18.2080,9682
18.2100,34360
18.2120,7985
18.2140,2576
18.2160,2320
18.2180,9858
18.2200,13619
18.2220,14819
18.2240,4032
18.2260,21205
18.2280,26982
18.2300,2224
18.2320,22885
18.2340,11042
18.2360,1040
18.2380,33112
18.2400,23557
18.2420,13811
18.2440,8802
18.2460,16580
18.2480,1952
18.2500,2352
18.2520,1152
18.2540,23349
18.2560,4305
18.2580,12098
18.2600,5537
18.2620,7473
18.2640,1936
18.2660,2400
18.2680,12707
18.2700,9474
18.2720,1120
18.2740,15107
18.2760,13923
18.2780,9538
18.2800,11074
18.2820,6609
18.2840,4673
18.2860,22693
18.2880,17444
18.2900,9746
18.2920,1920
18.2940,24582
18.2960,4577
18.2980,2368
18.3000,10290
18.3020,28823
18.3040,6209
18.3060,3120
18.3080,8770
18.3100,8434
18.3120,784
18.3140,3888
18.3160,8177
18.3180,4497
18.3200,10770
18.3220,1872
18.3240,1312
18.3260,8658
18.3280,25958
18.3300,2464
18.3320,10050
18.3340,2352
18.3360,2272
18.3380,17172
18.3400,1792
18.3420,5537
18.3440,10674
18.3460,4000
18.3480,9698
18.3500,2144
18.3520,1600
18.3540,2896
18.3560,1792
18.3580,2080
18.3600,7105
18.3620,12258
18.3640,4801
18.3660,3008
18.3680,8498
18.3700,14035
18.3720,28438
18.3740,6865
18.3760,2000
18.3780,9922
18.3800,15843
18.3820,1888
18.3840,16420
18.3860,5073
18.3880,23717
18.3900,10690
18.3920,16692
18.3940,2400
18.3960,2208
18.3980,4321
18.4000,2128
18.4020,1088
18.4040,33800
18.4060,18772
18.4080,1088
18.4100,2896
18.4120,1440
18.4140,1456
18.4160,1584
18.4180,3040
18.4200,33848
18.4220,3648
18.4240,27238
18.4260,13363
18.4280,2768
18.4300,33320
18.4320,37289
18.4340,1568
18.4360,2144
18.4380,6449
18.4400,20741
18.4420,11234
18.4440,1344
18.4460,4897
18.4480,3200
18.4500,12563
18.4520,13763
18.4540,1024
18.4560,20020
18.4580,2096
18.4600,28614
18.4620,6161
18.4640,15891
18.4660,9362
18.4680,6929
18.4700,2736
18.4720,6817
18.4740,5505
18.4760,5281
18.4780,10594
18.4800,15283
18.4820,6433
18.4840,3584
18.4860,14611
18.4880,24517
18.4900,5665
18.4920,21077
18.4940,14179
18.4960,25254
18.4980,9282
18.5000,3264
18.5020,11058
18.5040,11282
18.5060,1584
18.5080,10194
18.5100,16852
18.5120,4305
18.5140,15251
18.5160,12323
18.5180,3360
18.5200,4849
18.5220,15699
18.5240,16275
18.5260,3600
18.5280,2320
18.5300,20629
18.5320,19252
18.5340,8882
18.5360,8738
18.5380,3040
18.5400,1760
18.5420,12595
18.5440,7841
18.5460,12226
18.5480,4417
18.5500,2688
18.5520,3616
18.5540,6625
18.5560,7489
18.5580,9554
18.5600,2048
18.5620,15123
18.5640,1664
18.5660,2704
18.5680,7233
18.5700,16900
18.5720,1424
18.5740,5377
18.5760,1552
18.5780,16836
18.5800,1760
18.5820,1696
18.5840,1424
18.5860,4032
18.5880,1104
18.5900,12194
18.5920,4177
18.5940,2576
18.5960,4385
18.5980,1360
18.6000,12419
18.6020,3552
18.6040,8081
18.6060,2496
18.6080,7313
18.6100,2704
18.6120,9442
18.6140,37385
18.6160,2064
18.6180,7377
18.6200,3328
18.6220,10114
18.6240,7873
18.6260,11922
18.6280,2848
18.6300,8065
18.6320,5041
18.6340,7921
18.6360,5089
18.6380,1568
18.6400,12483
18.6420,12771
18.6440,3760
18.6460,29751
18.6480,12050
18.6500,10946
18.6520,31175
18.6540,8290
18.6560,8194
18.6580,4641
18.6600,3552
18.6620,14419
18.6640,7041
18.6660,6337
18.6680,1296
18.6700,22117
18.6720,3904
18.6740,14147
18.6760,3520
18.6780,7473
18.6800,9378
18.6820,33640
18.6840,41930
18.6860,6785
18.6880,1760
18.6900,2128
18.6920,11938
18.6940,17236
18.6960,3472
18.6980,20196
18.7000,1200
18.7020,21733
18.7040,1072
18.7060,6657
18.7080,4561
18.7100,15555
18.7120,28294
18.7140,20901
18.7160,19460
18.7180,13107
18.7200,7041
18.7220,8210
18.7240,1856
18.7260,8738
18.7280,14499
18.7300,12883
18.7320,4497
18.7340,5553
18.7360,4289
18.7380,13603
18.7400,12611
18.7420,4080
18.7440,6321
18.7460,3408
18.7480,2112
18.7500,2240
18.7520,23973
18.7540,3408
18.7560,8210
18.7580,2800
18.7600,6657
18.7620,1280
18.7640,2368
18.7660,9426
18.7680,5937
18.7700,6161
18.7720,15251
18.7740,34488
18.7760,2496
18.7780,2640
18.7800,16083
18.7820,6353
18.7840,6881
18.7860,8290
18.7880,7121
18.7900,3984
18.7920,2448
18.7940,20869
18.7960,5809
18.7980,21925
18.8000,18388
18.8020,2800
18.8040,3248
18.8060,1664
18.8080,4913
18.8100,7425
18.8120,7473
18.8140,8113
18.8160,2000
18.8180,19876
18.8200,3792
18.8220,14771
18.8240,1744
18.8260,1888
18.8280,1920
18.8300,5169
18.8320,4193
18.8340,3520
18.8360,1184
18.8380,7697
18.8400,20837
18.8420,21605
18.8440,11170
18.8460,2064
18.8480,2368
18.8500,2496
18.8520,11922
18.8540,14867
18.8560,3040
18.8580,1760
18.8600,3472
18.8620,4048
18.8640,11618
18.8660,20821
18.8680,1680
18.8700,2096
18.8720,1792
18.8740,4064
18.8760,15667
18.8780,11010
18.8800,1184
18.8820,1344
18.8840,12483
18.8860,15443
18.8880,20324
18.8900,13763
18.8920,1536
18.8940,17300
18.8960,33304
18.8980,17188
18.9000,11394
18.9020,8658
18.9040,4833
18.9060,1232
18.9080,23045
18.9100,8450
18.9120,3584
18.9140,1536
18.9160,14435
18.9180,3024
18.9200,9986
18.9220,10530
18.9240,5729
18.9260,27414
18.9280,5761
18.9300,42938
18.9320,1616
18.9340,17716
18.9360,2640
18.9380,6161
18.9400,7377
18.9420,19700
18.9440,22741
18.9460,1504
18.9480,1168
18.9500,7185
18.9520,1408
18.9540,16195
18.9560,24662
18.9580,1600
18.9600,2576
18.9620,1280
18.9640,912
18.9660,6017
18.9680,13075
18.9700,6049
18.9720,21285
18.9740,7249
18.9760,6305
18.9780,16019
18.9800,1952
18.9820,2528
18.9840,12178
18.9860,5809
18.9880,11362
18.9900,8033
18.9920,14467
18.9940,3520
18.9960,2880
18.9980,5537
19.0000,2336
19.0020,10466
19.0040,30775
19.0060,31751
19.0080,2640
19.0100,5025
19.0120,3680
19.0140,2304
19.0160,1744
19.0180,3520
19.0200,2864
19.0220,1360
19.0240,4673
19.0260,9954
19.0280,36568
19.0300,25670
19.0320,16436
19.0340,28855
19.0360,7617
19.0380,2320
19.0400,2848
19.0420,1360
19.0440,4625
19.0460,15443
19.0480,12867
19.0500,14691
19.0520,19236
19.0540,3040
19.0560,26278
19.0580,21525
19.0600,2288
19.0620,12883
19.0640,7777
19.0660,10450
19.0680,14163
19.0700,3872
19.0720,15075
19.0740,3728
19.0760,7025
19.0780,4897
19.0800,2704
19.0820,13715
19.0840,6801
19.0860,15635
19.0880,13619
19.0900,7201
19.0920,4097
19.0940,27718
19.0960,12467
19.0980,1088
19.1000,1584
19.1020,1600
19.1040,1456
19.1060,5345
19.1080,3904
19.1100,9666
19.1120,13267
19.1140,5217
19.1160,8177
19.1180,4577
19.1200,12867
19.1220,10258
19.1240,15139
19.1260,4833
19.1280,2112
19.1300,1088
19.1320,6145
19.1340,17988
19.1360,19028
19.1380,19172
19.1400,23525
19.1420,9266
19.1440,4625
19.1460,1680
19.1480,1472
19.1500,9090
19.1520,5697
19.1540,3632
19.1560,11714
19.1580,12867
19.1600,1328
19.1620,24565
19.1640,2080
19.1660,30871
19.1680,26150
19.1700,15491
19.1720,30007
19.1740,11154
19.1760,6641
19.1780,3296
19.1800,6241
19.1820,4737
19.1840,8033
19.1860,19748
19.1880,2576
19.1900,21461
19.1920,6673
19.1940,1536
19.1960,24758
19.1980,20052
19.2000,1712
19.2020,12547
19.2040,8001
19.2060,3984
19.2080,3040
19.2100,22485
19.2120,18772
19.2140,15715
19.2160,1424
19.2180,15539
19.2200,12114
19.2220,11794
19.2240,39769
19.2260,2496
19.2280,1952
19.2300,9650
19.2320,13507
19.2340,4257
19.2360,4032
19.2380,8978
19.2400,4497
19.2420,23301
19.2440,18468
19.2460,15619
19.2480,3152
19.2500,20741
19.2520,7137
19.2540,11602
19.2560,3024
19.2580,2064
19.2600,8145
19.2620,5761
19.2640,8834
19.2660,14947
19.2680,1504
19.2700,12066
19.2720,4897
19.2740,15875
19.2760,16788
19.2780,21861
19.2800,2992
19.2820,5089
19.2840,3408
19.2860,14147
19.2880,25878
19.2900,4769
19.2920,2784
19.2940,2848
19.2960,12883
