Tempo(s),EMG_Value
0.0000,2896
0.0020,1040
0.0040,544
0.0060,1488
0.0080,576
0.0100,1264
0.0120,912
0.0140,400
0.0160,720
0.0180,2528
0.0200,448
0.0220,688
0.0240,448
0.0260,384
0.0280,336
0.0300,592
0.0320,896
0.0340,704
0.0360,480
0.0380,1104
0.0400,720
0.0420,400
0.0440,592
0.0460,512
0.0480,1376
0.0500,608
0.0520,336
0.0540,656
0.0560,720
0.0580,1744
0.0600,416
0.0620,432
0.0640,464
0.0660,544
0.0680,480
0.0700,3152
0.0720,832
0.0740,544
0.0760,736
0.0780,1040
0.0800,336
0.0820,480
0.0840,976
0.0860,336
0.0880,1104
0.0900,912
0.0920,848
0.0940,912
0.0960,640
0.0980,1248
0.1000,688
0.1020,976
0.1040,672
0.1060,128
0.1080,1440
0.1100,800
0.1120,1328
0.1140,2096
0.1160,4385
0.1180,2240
0.1200,2096
0.1220,288
0.1240,1312
0.1260,1248
0.1280,1408
0.1300,656
0.1320,1104
0.1340,2144
0.1360,560
0.1380,672
0.1400,512
0.1420,320
0.1440,224
0.1460,672
0.1480,1008
0.1500,720
0.1520,512
0.1540,464
0.1560,208
0.1580,736
0.1600,912
0.1620,2128
0.1640,640
0.1660,816
0.1680,1056
0.1700,2352
0.1720,768
0.1740,592
0.1760,416
0.1780,1248
0.1800,336
0.1820,704
0.1840,976
0.1860,304
0.1880,640
0.1900,448
0.1920,1360
0.1940,832
0.1960,2992
0.1980,432
0.2000,2528
0.2020,608
0.2040,816
0.2060,1344
0.2080,8786
0.2100,10066
0.2120,464
0.2140,640
0.2160,512
0.2180,240
0.2200,960
0.2220,416
0.2240,736
0.2260,736
0.2280,864
0.2300,480
0.2320,592
0.2340,912
0.2360,576
0.2380,1456
0.2400,640
0.2420,560
0.2440,608
0.2460,976
0.2480,544
0.2500,1408
0.2520,2848
0.2540,528
0.2560,432
0.2580,448
0.2600,528
0.2620,656
0.2640,928
0.2660,560
0.2680,512
0.2700,608
0.2720,2096
0.2740,768
0.2760,1088
0.2780,1808
0.2800,672
0.2820,784
0.2840,2016
0.2860,432
0.2880,1184
0.2900,592
0.2920,464
0.2940,352
0.2960,608
0.2980,224
0.3000,544
0.3020,512
0.3040,1200
0.3060,432
0.3080,720
0.3100,1200
0.3120,2192
0.3140,1824
0.3160,2336
0.3180,1040
0.3200,704
0.3220,1312
0.3240,720
0.3260,1072
0.3280,416
0.3300,512
0.3320,800
0.3340,528
0.3360,912
0.3380,768
0.3400,1312
0.3420,960
0.3440,336
0.3460,592
0.3480,528
0.3500,528
0.3520,1456
0.3540,1120
0.3560,704
0.3580,352
0.3600,1552
0.3620,1168
0.3640,1280
0.3660,608
0.3680,736
0.3700,1120
0.3720,592
0.3740,608
0.3760,1088
0.3780,592
0.3800,720
0.3820,832
0.3840,592
0.3860,528
0.3880,256
0.3900,640
0.3920,464
0.3940,480
0.3960,1024
0.3980,656
0.4000,704
0.4020,1664
0.4040,352
0.4060,528
0.4080,736
0.4100,688
0.4120,464
0.4140,2208
0.4160,576
0.4180,416
0.4200,528
0.4220,736
0.4240,464
0.4260,528
0.4280,1232
0.4300,416
0.4320,1040
0.4340,512
0.4360,928
0.4380,576
0.4400,480
0.4420,608
0.4440,1824
0.4460,1040
0.4480,736
0.4500,848
0.4520,688
0.4540,784
0.4560,784
0.4580,816
0.4600,560
0.4620,1088
0.4640,816
0.4660,1808
0.4680,784
0.4700,688
0.4720,976
0.4740,384
0.4760,976
0.4780,608
0.4800,464
0.4820,400
0.4840,832
0.4860,400
0.4880,816
0.4900,1168
0.4920,576
0.4940,832
0.4960,1632
0.4980,752
0.5000,1344
0.5020,464
0.5040,656
0.5060,912
0.5080,752
0.5100,608
0.5120,1072
0.5140,992
0.5160,688
0.5180,208
0.5200,3408
0.5220,400
0.5240,1232
0.5260,576
0.5280,896
0.5300,1200
0.5320,1168
0.5340,1056
0.5360,448
0.5380,688
0.5400,416
0.5420,1232
0.5440,544
0.5460,512
0.5480,1056
0.5500,976
0.5520,4016
0.5540,640
0.5560,944
0.5580,992
0.5600,384
0.5620,304
0.5640,896
0.5660,672
0.5680,592
0.5700,672
0.5720,1008
0.5740,784
0.5760,816
0.5780,688
0.5800,1520
0.5820,256
0.5840,496
0.5860,1264
0.5880,512
0.5900,912
0.5920,288
0.5940,7137
0.5960,1808
0.5980,656
0.6000,976
0.6020,544
0.6040,432
0.6060,1600
0.6080,2080
0.6100,2592
0.6120,1376
0.6140,992
0.6160,944
0.6180,576
0.6200,864
0.6220,448
0.6240,464
0.6260,704
0.6280,448
0.6300,784
0.6320,576
0.6340,1056
0.6360,944
0.6380,848
0.6400,752
0.6420,704
0.6440,816
0.6460,544
0.6480,448
0.6500,816
0.6520,672
0.6540,512
0.6560,480
0.6580,400
0.6600,1280
0.6620,912
0.6640,288
0.6660,848
0.6680,496
0.6700,1424
0.6720,320
0.6740,704
0.6760,464
0.6780,992
0.6800,720
0.6820,1600
0.6840,656
0.6860,912
0.6880,400
0.6900,704
0.6920,832
0.6940,272
0.6960,816
0.6980,1760
0.7000,640
0.7020,608
0.7040,1232
0.7060,304
0.7080,448
0.7100,496
0.7120,576
0.7140,320
0.7160,624
0.7180,416
0.7200,704
0.7220,464
0.7240,352
0.7260,560
0.7280,768
0.7300,768
0.7320,2704
0.7340,816
0.7360,448
0.7380,352
0.7400,640
0.7420,384
0.7440,720
0.7460,784
0.7480,1088
0.7500,2544
0.7520,1584
0.7540,1024
0.7560,704
0.7580,592
0.7600,1072
0.7620,672
0.7640,720
0.7660,464
0.7680,448
0.7700,512
0.7720,608
0.7740,480
0.7760,528
0.7780,656
0.7800,880
0.7820,800
0.7840,672
0.7860,704
0.7880,1184
0.7900,400
0.7920,496
0.7940,608
0.7960,2352
0.7980,256
0.8000,784
0.8020,1216
0.8040,320
0.8060,688
0.8080,1632
0.8100,1072
0.8120,400
0.8140,912
0.8160,1088
0.8180,1024
0.8200,1344
0.8220,464
0.8240,848
0.8260,512
0.8280,480
0.8300,976
0.8320,512
0.8340,640
0.8360,640
0.8380,400
0.8400,304
0.8420,560
0.8440,784
0.8460,528
0.8480,848
0.8500,608
0.8520,1040
0.8540,224
0.8560,704
0.8580,416
0.8600,480
0.8620,864
0.8640,944
0.8660,1504
0.8680,240
0.8700,1088
0.8720,2176
0.8740,1072
0.8760,704
0.8780,416
0.8800,288
0.8820,1040
0.8840,352
0.8860,720
0.8880,816
0.8900,528
0.8920,432
0.8940,832
0.8960,560
0.8980,832
0.9000,848
0.9020,1072
0.9040,2240
0.9060,272
0.9080,2720
0.9100,688
0.9120,544
0.9140,704
0.9160,640
0.9180,384
0.9200,272
0.9220,736
0.9240,928
0.9260,832
0.9280,1296
0.9300,736
0.9320,480
0.9340,864
0.9360,1296
0.9380,928
0.9400,1136
0.9420,768
0.9440,448
0.9460,2704
0.9480,1088
0.9500,816
0.9520,384
0.9540,0
0.9560,976
0.9580,720
0.9600,560
0.9620,720
0.9640,560
0.9660,512
0.9680,416
0.9700,1664
0.9720,1232
0.9740,704
0.9760,576
0.9780,464
0.9800,1056
0.9820,896
0.9840,592
0.9860,672
0.9880,320
0.9900,752
0.9920,576
0.9940,448
0.9960,688
0.9980,208
1.0000,1760
1.0020,800
1.0040,576
1.0060,576
1.0080,784
1.0100,928
1.0120,688
1.0140,544
1.0160,304
1.0180,608
1.0200,1760
1.0220,1232
1.0240,464
1.0260,1248
1.0280,752
1.0300,720
1.0320,1248
1.0340,672
1.0360,336
1.0380,688
1.0400,368
1.0420,656
1.0440,704
1.0460,560
1.0480,1152
1.0500,640
1.0520,448
1.0540,2448
1.0560,752
1.0580,736
1.0600,976
1.0620,1184
1.0640,768
1.0660,656
1.0680,640
1.0700,336
1.0720,656
1.0740,2000
1.0760,640
1.0780,1488
1.0800,80
1.0820,592
1.0840,560
1.0860,2672
1.0880,736
1.0900,976
1.0920,1072
1.0940,1472
1.0960,464
1.0980,1040
1.1000,800
1.1020,752
1.1040,704
1.1060,752
1.1080,1360
1.1100,544
1.1120,416
1.1140,400
1.1160,1120
1.1180,384
1.1200,608
1.1220,912
1.1240,768
1.1260,448
1.1280,1120
1.1300,592
1.1320,528
1.1340,512
1.1360,832
1.1380,1392
1.1400,768
1.1420,1456
1.1440,752
1.1460,256
1.1480,640
1.1500,576
1.1520,432
1.1540,512
1.1560,816
1.1580,2096
1.1600,960
1.1620,544
1.1640,1600
1.1660,768
1.1680,560
1.1700,1968
1.1720,720
1.1740,848
1.1760,736
1.1780,528
1.1800,464
1.1820,480
1.1840,864
1.1860,976
1.1880,352
1.1900,336
1.1920,1360
1.1940,976
1.1960,352
1.1980,768
1.2000,448
1.2020,432
1.2040,912
1.2060,704
1.2080,272
1.2100,800
1.2120,848
1.2140,1328
1.2160,464
1.2180,656
1.2200,592
1.2220,1568
1.2240,816
1.2260,848
1.2280,256
1.2300,512
1.2320,384
1.2340,1136
1.2360,656
1.2380,592
1.2400,736
1.2420,480
1.2440,816
1.2460,448
1.2480,352
1.2500,576
1.2520,464
1.2540,2496
1.2560,800
1.2580,464
1.2600,336
1.2620,1200
1.2640,592
1.2660,912
1.2680,656
1.2700,1184
1.2720,960
1.2740,640
1.2760,544
1.2780,1888
1.2800,2944
1.2820,1472
1.2840,624
1.2860,560
1.2880,576
1.2900,1536
1.2920,544
1.2940,672
1.2960,608
1.2980,624
1.3000,1072
1.3020,1744
1.3040,448
1.3060,1120
1.3080,704
1.3100,432
1.3120,800
1.3140,688
1.3160,208
1.3180,736
1.3200,2384
1.3220,912
1.3240,832
1.3260,1072
1.3280,544
1.3300,512
1.3320,800
1.3340,800
1.3360,704
1.3380,384
1.3400,416
1.3420,432
1.3440,560
1.3460,784
1.3480,448
1.3500,944
1.3520,1232
1.3540,320
1.3560,944
1.3580,672
1.3600,1184
1.3620,592
1.3640,896
1.3660,720
1.3680,944
1.3700,576
1.3720,336
1.3740,736
1.3760,976
1.3780,592
1.3800,1072
1.3820,720
1.3840,832
1.3860,1120
1.3880,512
1.3900,576
1.3920,560
1.3940,800
1.3960,768
1.3980,624
1.4000,288
1.4020,656
1.4040,464
1.4060,672
1.4080,720
1.4100,944
1.4120,656
1.4140,944
1.4160,256
1.4180,1072
1.4200,240
1.4220,400
1.4240,1088
1.4260,464
1.4280,480
1.4300,672
1.4320,1344
1.4340,416
1.4360,576
1.4380,768
1.4400,640
1.4420,1552
1.4440,208
1.4460,1600
1.4480,784
1.4500,1296
1.4520,1440
1.4540,1696
1.4560,352
1.4580,576
1.4600,416
1.4620,1248
1.4640,592
1.4660,416
1.4680,1440
1.4700,448
1.4720,528
1.4740,704
1.4760,1120
1.4780,1408
1.4800,576
1.4820,656
1.4840,464
1.4860,432
1.4880,672
1.4900,464
1.4920,352
1.4940,1840
1.4960,2160
1.4980,1216
1.5000,848
1.5020,736
1.5040,704
1.5060,576
1.5080,848
1.5100,288
1.5120,1968
1.5140,864
1.5160,2624
1.5180,800
1.5200,448
1.5220,688
1.5240,1008
1.5260,608
1.5280,688
1.5300,1072
1.5320,608
1.5340,544
1.5360,1056
1.5380,1120
1.5400,2112
1.5420,992
1.5440,496
1.5460,816
1.5480,1360
1.5500,688
1.5520,640
1.5540,704
1.5560,352
1.5580,736
1.5600,464
1.5620,912
1.5640,400
1.5660,1088
1.5680,784
1.5700,1440
1.5720,752
1.5740,464
1.5760,1024
1.5780,528
1.5800,304
1.5820,1408
1.5840,1008
1.5860,656
1.5880,688
1.5900,272
1.5920,2112
1.5940,736
1.5960,1376
1.5980,272
1.6000,640
1.6020,2320
1.6040,352
1.6060,800
1.6080,992
1.6100,592
1.6120,304
1.6140,1216
1.6160,176
1.6180,832
1.6200,1200
1.6220,816
1.6240,416
1.6260,1024
1.6280,736
1.6300,384
1.6320,2144
1.6340,544
1.6360,720
1.6380,928
1.6400,832
1.6420,1232
1.6440,1456
1.6460,608
1.6480,624
1.6500,1856
1.6520,976
1.6540,512
1.6560,736
1.6580,576
1.6600,512
1.6620,672
1.6640,320
1.6660,448
1.6680,1056
1.6700,688
1.6720,448
1.6740,928
1.6760,864
1.6780,624
1.6800,912
1.6820,176
1.6840,576
1.6860,592
1.6880,752
1.6900,528
1.6920,560
1.6940,784
1.6960,272
1.6980,1168
1.7000,480
1.7020,864
1.7040,208
1.7060,272
1.7080,608
1.7100,1568
1.7120,944
1.7140,1216
1.7160,336
1.7180,832
1.7200,1504
1.7220,448
1.7240,736
1.7260,208
1.7280,800
1.7300,576
1.7320,3792
1.7340,1344
1.7360,384
1.7380,736
1.7400,528
1.7420,576
1.7440,976
1.7460,928
1.7480,1872
1.7500,4593
1.7520,6929
1.7540,544
1.7560,704
1.7580,848
1.7600,224
1.7620,912
1.7640,832
1.7660,640
1.7680,336
1.7700,640
1.7720,464
1.7740,656
1.7760,976
1.7780,160
1.7800,848
1.7820,480
1.7840,800
1.7860,384
1.7880,1072
1.7900,1104
1.7920,544
1.7940,928
1.7960,752
1.7980,1984
1.8000,448
1.8020,800
1.8040,864
1.8060,784
1.8080,656
1.8100,1120
1.8120,880
1.8140,912
1.8160,288
1.8180,816
1.8200,2080
1.8220,544
1.8240,656
1.8260,576
1.8280,1024
1.8300,704
1.8320,784
1.8340,480
1.8360,864
1.8380,736
1.8400,752
1.8420,448
1.8440,944
1.8460,720
1.8480,464
1.8500,304
1.8520,400
1.8540,320
1.8560,576
1.8580,576
1.8600,5889
1.8620,1504
1.8640,416
1.8660,432
1.8680,640
1.8700,672
1.8720,544
1.8740,416
1.8760,736
1.8780,944
1.8800,576
1.8820,768
1.8840,784
1.8860,480
1.8880,336
1.8900,592
1.8920,704
1.8940,1024
1.8960,752
1.8980,384
1.9000,512
1.9020,768
1.9040,368
1.9060,544
1.9080,400
1.9100,992
1.9120,944
1.9140,992
1.9160,496
1.9180,368
1.9200,640
1.9220,704
1.9240,688
1.9260,784
1.9280,480
1.9300,1344
1.9320,320
1.9340,688
1.9360,944
1.9380,576
1.9400,640
1.9420,1200
1.9440,560
1.9460,512
1.9480,928
1.9500,592
1.9520,288
1.9540,608
1.9560,688
1.9580,576
1.9600,448
1.9620,1504
1.9640,800
1.9660,960
1.9680,944
1.9700,1248
1.9720,976
1.9740,2656
1.9760,576
1.9780,624
1.9800,688
1.9820,592
1.9840,608
1.9860,736
1.9880,464
1.9900,208
1.9920,816
1.9940,608
1.9960,544
1.9980,896
2.0000,576
2.0020,160
2.0040,2368
2.0060,688
2.0080,1840
2.0100,944
2.0120,5153
2.0140,5841
2.0160,816
2.0180,304
2.0200,1200
2.0220,3200
2.0240,1168
2.0260,608
2.0280,592
2.0300,816
2.0320,448
2.0340,592
2.0360,704
2.0380,672
2.0400,1168
2.0420,784
2.0440,1088
2.0460,656
2.0480,576
2.0500,1504
2.0520,400
2.0540,704
2.0560,224
2.0580,1088
2.0600,448
2.0620,672
2.0640,1072
2.0660,720
2.0680,656
2.0700,720
2.0720,640
2.0740,736
2.0760,512
2.0780,944
2.0800,544
2.0820,976
2.0840,560
2.0860,544
2.0880,768
2.0900,864
2.0920,640
2.0940,800
2.0960,432
2.0980,832
2.1000,640
2.1020,736
2.1040,560
2.1060,592
2.1080,176
2.1100,784
2.1120,1424
2.1140,4321
2.1160,448
2.1180,768
2.1200,1264
2.1220,640
2.1240,592
2.1260,528
2.1280,848
2.1300,256
2.1320,848
2.1340,352
2.1360,400
2.1380,224
2.1400,848
2.1420,384
2.1440,848
2.1460,352
2.1480,896
2.1500,320
2.1520,432
2.1540,1824
2.1560,1168
2.1580,288
2.1600,352
2.1620,848
2.1640,864
2.1660,64
2.1680,1488
2.1700,560
2.1720,800
2.1740,352
2.1760,224
2.1780,592
2.1800,784
2.1820,1232
2.1840,848
2.1860,800
2.1880,736
2.1900,432
2.1920,448
2.1940,512
2.1960,400
2.1980,816
2.2000,560
2.2020,304
2.2040,1088
2.2060,1600
2.2080,1792
2.2100,1056
2.2120,528
2.2140,928
2.2160,448
2.2180,656
2.2200,480
2.2220,960
2.2240,1248
2.2260,640
2.2280,352
2.2300,592
2.2320,1024
2.2340,384
2.2360,704
2.2380,592
2.2400,672
2.2420,1104
2.2440,816
2.2460,800
2.2480,688
2.2500,944
2.2520,448
2.2540,768
2.2560,976
2.2580,560
2.2600,7137
2.2620,7857
2.2640,1072
2.2660,1120
2.2680,448
2.2700,560
2.2720,528
2.2740,816
2.2760,272
2.2780,592
2.2800,336
2.2820,2080
2.2840,1072
2.2860,1008
2.2880,608
2.2900,592
2.2920,528
2.2940,544
2.2960,1024
2.2980,704
2.3000,432
2.3020,528
2.3040,672
2.3060,704
2.3080,1056
2.3100,240
2.3120,1200
2.3140,656
2.3160,1056
2.3180,736
2.3200,1072
2.3220,944
2.3240,944
2.3260,1056
2.3280,592
2.3300,832
2.3320,976
2.3340,592
2.3360,640
2.3380,592
2.3400,1232
2.3420,752
2.3440,1424
2.3460,512
2.3480,432
2.3500,336
2.3520,448
2.3540,528
2.3560,528
2.3580,720
2.3600,736
2.3620,512
2.3640,1328
2.3660,304
2.3680,1248
2.3700,736
2.3720,640
2.3740,2400
2.3760,768
2.3780,960
2.3800,1184
2.3820,208
2.3840,448
2.3860,320
2.3880,768
2.3900,416
2.3920,400
2.3940,704
2.3960,1168
2.3980,480
2.4000,320
2.4020,576
2.4040,784
2.4060,512
2.4080,1040
2.4100,784
2.4120,784
2.4140,560
2.4160,1296
2.4180,432
2.4200,400
2.4220,1520
2.4240,272
2.4260,480
2.4280,432
2.4300,592
2.4320,528
2.4340,560
2.4360,512
2.4380,208
2.4400,800
2.4420,608
2.4440,768
2.4460,656
2.4480,448
2.4500,752
2.4520,560
2.4540,720
2.4560,480
2.4580,1040
2.4600,976
2.4620,800
2.4640,896
2.4660,512
2.4680,1920
2.4700,752
2.4720,448
2.4740,608
2.4760,816
2.4780,304
2.4800,768
2.4820,304
2.4840,624
2.4860,576
2.4880,288
2.4900,592
2.4920,1056
2.4940,400
2.4960,784
2.4980,800
2.5000,416
2.5020,720
2.5040,352
2.5060,3072
2.5080,688
2.5100,1536
2.5120,560
2.5140,1392
2.5160,432
2.5180,896
2.5200,1776
2.5220,480
2.5240,1248
2.5260,1184
2.5280,1792
2.5300,784
2.5320,672
2.5340,544
2.5360,304
2.5380,544
2.5400,384
2.5420,608
2.5440,768
2.5460,384
2.5480,1056
2.5500,1040
2.5520,400
2.5540,1264
2.5560,560
2.5580,1248
2.5600,720
2.5620,352
2.5640,336
2.5660,464
2.5680,512
2.5700,1264
2.5720,704
2.5740,608
2.5760,688
2.5780,736
2.5800,368
2.5820,464
2.5840,432
2.5860,480
2.5880,768
2.5900,704
2.5920,336
2.5940,272
2.5960,784
2.5980,736
2.6000,5585
2.6020,7137
2.6040,640
2.6060,352
2.6080,832
2.6100,992
2.6120,976
2.6140,432
2.6160,480
2.6180,384
2.6200,272
2.6220,160
2.6240,576
2.6260,736
2.6280,896
2.6300,560
2.6320,816
2.6340,592
2.6360,592
2.6380,848
2.6400,464
2.6420,912
2.6440,528
2.6460,672
2.6480,896
2.6500,1040
2.6520,480
2.6540,752
2.6560,656
2.6580,432
2.6600,736
2.6620,1200
2.6640,464
2.6660,640
2.6680,496
2.6700,448
2.6720,656
2.6740,672
2.6760,1040
2.6780,720
2.6800,976
2.6820,688
2.6840,432
2.6860,400
2.6880,736
2.6900,1376
2.6920,560
2.6940,400
2.6960,352
2.6980,528
2.7000,560
2.7020,880
2.7040,1792
2.7060,256
2.7080,784
2.7100,768
2.7120,784
2.7140,1408
2.7160,960
2.7180,1344
2.7200,928
2.7220,832
2.7240,544
2.7260,912
2.7280,880
2.7300,2608
2.7320,976
2.7340,720
2.7360,816
2.7380,1280
2.7400,560
2.7420,464
2.7440,1216
2.7460,720
2.7480,672
2.7500,1856
2.7520,384
2.7540,720
2.7560,400
2.7580,688
2.7600,544
2.7620,1152
2.7640,368
2.7660,704
2.7680,512
2.7700,352
2.7720,608
2.7740,768
2.7760,736
2.7780,864
2.7800,768
2.7820,336
2.7840,640
2.7860,448
2.7880,544
2.7900,592
2.7920,432
2.7940,400
2.7960,480
2.7980,672
2.8000,528
2.8020,1680
2.8040,672
2.8060,1520
2.8080,640
2.8100,768
2.8120,704
2.8140,480
2.8160,944
2.8180,544
2.8200,272
2.8220,896
2.8240,1536
2.8260,464
2.8280,736
2.8300,800
2.8320,224
2.8340,608
2.8360,560
2.8380,640
2.8400,528
2.8420,816
2.8440,608
2.8460,528
2.8480,208
2.8500,752
2.8520,736
2.8540,960
2.8560,560
2.8580,784
2.8600,496
2.8620,208
2.8640,672
2.8660,864
2.8680,7553
2.8700,1200
2.8720,736
2.8740,528
2.8760,416
2.8780,480
2.8800,384
2.8820,544
2.8840,1152
2.8860,736
2.8880,528
2.8900,896
2.8920,752
2.8940,624
2.8960,544
2.8980,448
2.9000,1536
2.9020,512
2.9040,864
2.9060,608
2.9080,736
2.9100,544
2.9120,400
2.9140,816
2.9160,976
2.9180,1952
2.9200,656
2.9220,1088
2.9240,464
2.9260,752
2.9280,512
2.9300,720
2.9320,624
2.9340,304
2.9360,784
2.9380,304
2.9400,400
2.9420,512
2.9440,848
2.9460,976
2.9480,464
2.9500,256
2.9520,1168
2.9540,1408
2.9560,1056
2.9580,336
2.9600,1072
2.9620,1312
2.9640,592
2.9660,1280
2.9680,1424
2.9700,272
2.9720,832
2.9740,768
2.9760,224
2.9780,560
2.9800,640
2.9820,304
2.9840,512
2.9860,224
2.9880,576
2.9900,832
2.9920,896
2.9940,640
2.9960,832
2.9980,608
3.0000,528
3.0020,672
3.0040,608
3.0060,352
3.0080,1296
3.0100,7569
3.0120,5569
3.0140,816
3.0160,1104
3.0180,1328
3.0200,848
3.0220,432
3.0240,464
3.0260,976
3.0280,960
3.0300,816
3.0320,1120
3.0340,720
3.0360,576
3.0380,416
3.0400,576
3.0420,512
3.0440,2048
3.0460,512
3.0480,480
3.0500,304
3.0520,800
3.0540,416
3.0560,576
3.0580,832
3.0600,672
3.0620,832
3.0640,176
3.0660,320
3.0680,448
3.0700,160
3.0720,464
3.0740,704
3.0760,1088
3.0780,672
3.0800,432
3.0820,512
3.0840,592
3.0860,1296
3.0880,1584
3.0900,592
3.0920,864
3.0940,1344
3.0960,1104
3.0980,992
3.1000,1408
3.1020,464
3.1040,800
3.1060,784
3.1080,304
3.1100,816
3.1120,688
3.1140,704
3.1160,560
3.1180,704
3.1200,384
3.1220,592
3.1240,976
3.1260,736
3.1280,512
3.1300,480
3.1320,400
3.1340,304
3.1360,1168
3.1380,224
3.1400,4769
3.1420,3856
3.1440,352
3.1460,704
3.1480,800
3.1500,544
3.1520,1024
3.1540,64
3.1560,960
3.1580,640
3.1600,160
3.1620,352
3.1640,704
3.1660,224
3.1680,832
3.1700,432
3.1720,528
3.1740,640
3.1760,512
3.1780,320
3.1800,784
3.1820,560
3.1840,544
3.1860,640
3.1880,560
3.1900,560
3.1920,1168
3.1940,464
3.1960,400
3.1980,864
3.2000,1296
3.2020,336
3.2040,32
3.2060,800
3.2080,352
3.2100,336
3.2120,512
3.2140,656
3.2160,176
3.2180,496
3.2200,880
3.2220,544
3.2240,736
3.2260,576
3.2280,816
3.2300,528
3.2320,960
3.2340,544
3.2360,496
3.2380,480
3.2400,432
3.2420,608
3.2440,3104
3.2460,464
3.2480,288
3.2500,816
3.2520,448
3.2540,5345
3.2560,5665
3.2580,288
3.2600,192
3.2620,640
3.2640,640
3.2660,432
3.2680,528
3.2700,784
3.2720,992
3.2740,752
3.2760,448
3.2780,976
3.2800,512
3.2820,800
3.2840,432
3.2860,432
3.2880,320
3.2900,512
3.2920,464
3.2940,848
3.2960,320
3.2980,464
3.3000,1872
3.3020,464
3.3040,528
3.3060,672
3.3080,704
3.3100,256
3.3120,1216
3.3140,704
3.3160,1840
3.3180,208
3.3200,928
3.3220,704
3.3240,912
3.3260,704
3.3280,544
3.3300,320
3.3320,2352
3.3340,2176
3.3360,1184
3.3380,1216
3.3400,1808
3.3420,480
3.3440,1088
3.3460,736
3.3480,784
3.3500,704
3.3520,528
3.3540,704
3.3560,848
3.3580,896
3.3600,720
3.3620,768
3.3640,784
3.3660,1104
3.3680,2192
3.3700,608
3.3720,656
3.3740,432
3.3760,528
3.3780,416
3.3800,704
3.3820,1680
3.3840,1104
3.3860,656
3.3880,256
3.3900,592
3.3920,480
3.3940,256
3.3960,1296
3.3980,256
3.4000,2112
3.4020,752
3.4040,336
3.4060,688
3.4080,384
3.4100,304
3.4120,768
3.4140,336
3.4160,784
3.4180,928
3.4200,1296
3.4220,832
3.4240,1472
3.4260,2240
3.4280,1216
3.4300,176
3.4320,672
3.4340,640
3.4360,640
3.4380,384
3.4400,720
3.4420,336
3.4440,592
3.4460,512
3.4480,848
3.4500,512
3.4520,464
3.4540,256
3.4560,528
3.4580,1024
3.4600,496
3.4620,528
3.4640,144
3.4660,960
3.4680,816
3.4700,320
3.4720,928
3.4740,592
3.4760,592
3.4780,480
3.4800,1216
3.4820,352
3.4840,896
3.4860,656
3.4880,1056
3.4900,608
3.4920,272
3.4940,608
3.4960,464
3.4980,528
3.5000,384
3.5020,416
3.5040,1056
3.5060,352
3.5080,592
3.5100,528
3.5120,1040
3.5140,576
3.5160,608
3.5180,368
3.5200,528
3.5220,416
3.5240,336
3.5260,896
3.5280,384
3.5300,736
3.5320,608
3.5340,512
3.5360,672
3.5380,272
3.5400,560
3.5420,688
3.5440,768
3.5460,496
3.5480,1184
3.5500,352
3.5520,736
3.5540,352
3.5560,896
3.5580,448
3.5600,4097
3.5620,2320
3.5640,784
3.5660,784
3.5680,544
3.5700,816
3.5720,720
3.5740,640
3.5760,640
3.5780,336
3.5800,656
3.5820,592
3.5840,384
3.5860,352
3.5880,2880
3.5900,464
3.5920,1040
3.5940,976
3.5960,544
3.5980,560
3.6000,448
3.6020,528
3.6040,1232
3.6060,432
3.6080,208
3.6100,576
3.6120,416
3.6140,384
3.6160,480
3.6180,608
3.6200,592
3.6220,784
3.6240,544
3.6260,608
3.6280,336
3.6300,608
3.6320,624
3.6340,176
3.6360,1616
3.6380,544
3.6400,624
3.6420,496
3.6440,432
3.6460,800
3.6480,576
3.6500,400
3.6520,160
3.6540,3296
3.6560,384
3.6580,896
3.6600,944
3.6620,480
3.6640,544
3.6660,944
3.6680,608
3.6700,1744
3.6720,416
3.6740,704
3.6760,464
3.6780,576
3.6800,928
3.6820,560
3.6840,608
3.6860,544
3.6880,800
3.6900,1104
3.6920,672
3.6940,576
3.6960,800
3.6980,832
3.7000,816
3.7020,512
3.7040,784
3.7060,784
3.7080,256
3.7100,576
3.7120,1280
3.7140,720
3.7160,800
3.7180,736
3.7200,288
3.7220,384
3.7240,944
3.7260,656
3.7280,736
3.7300,736
3.7320,576
3.7340,496
3.7360,624
3.7380,768
3.7400,656
3.7420,1120
3.7440,656
3.7460,496
3.7480,1328
3.7500,432
3.7520,256
3.7540,592
3.7560,1168
3.7580,1040
3.7600,688
3.7620,912
3.7640,464
3.7660,4737
3.7680,3408
3.7700,832
3.7720,1232
3.7740,784
3.7760,992
3.7780,672
3.7800,800
3.7820,544
3.7840,48
3.7860,640
3.7880,768
3.7900,832
3.7920,160
3.7940,528
3.7960,1088
3.7980,1024
3.8000,304
3.8020,144
3.8040,784
3.8060,1344
3.8080,528
3.8100,592
3.8120,1680
3.8140,592
3.8160,992
3.8180,384
3.8200,864
3.8220,560
3.8240,528
3.8260,944
3.8280,800
3.8300,608
3.8320,592
3.8340,544
3.8360,672
3.8380,2048
3.8400,672
3.8420,656
3.8440,1216
3.8460,736
3.8480,496
3.8500,608
3.8520,224
3.8540,672
3.8560,400
3.8580,512
3.8600,336
3.8620,896
3.8640,400
3.8660,1360
3.8680,1072
3.8700,752
3.8720,1312
3.8740,2016
3.8760,352
3.8780,800
3.8800,848
3.8820,1984
3.8840,944
3.8860,1360
3.8880,2128
3.8900,2624
3.8920,1232
3.8940,560
3.8960,592
3.8980,4369
3.9000,864
3.9020,656
3.9040,944
3.9060,864
3.9080,992
3.9100,656
3.9120,864
3.9140,784
3.9160,512
3.9180,480
3.9200,1168
3.9220,688
3.9240,864
3.9260,288
3.9280,256
3.9300,544
3.9320,880
3.9340,224
3.9360,992
3.9380,736
3.9400,688
3.9420,1168
3.9440,816
3.9460,768
3.9480,528
3.9500,512
3.9520,160
3.9540,2608
3.9560,640
3.9580,1008
3.9600,352
3.9620,720
3.9640,432
3.9660,672
3.9680,656
3.9700,976
3.9720,720
3.9740,1088
3.9760,336
3.9780,496
3.9800,608
3.9820,2592
3.9840,976
3.9860,928
3.9880,560
3.9900,560
3.9920,768
3.9940,832
3.9960,1152
3.9980,432
4.0000,688
4.0020,960
4.0040,608
4.0060,480
4.0080,432
4.0100,480
4.0120,736
4.0140,464
4.0160,864
4.0180,544
4.0200,304
4.0220,576
4.0240,640
4.0260,384
4.0280,576
4.0300,688
4.0320,544
4.0340,1328
4.0360,800
4.0380,5537
4.0400,6353
4.0420,768
4.0440,816
4.0460,928
4.0480,528
4.0500,1376
4.0520,832
4.0540,704
4.0560,784
4.0580,464
4.0600,544
4.0620,464
4.0640,608
4.0660,912
4.0680,1296
4.0700,752
4.0720,288
4.0740,1216
4.0760,1184
4.0780,448
4.0800,512
4.0820,896
4.0840,432
4.0860,304
4.0880,752
4.0900,736
4.0920,864
4.0940,576
4.0960,560
4.0980,640
4.1000,1456
4.1020,704
4.1040,656
4.1060,464
4.1080,672
4.1100,784
4.1120,640
4.1140,1040
4.1160,832
4.1180,560
4.1200,928
4.1220,672
4.1240,432
4.1260,800
4.1280,2320
4.1300,592
4.1320,1152
4.1340,592
4.1360,816
4.1380,736
4.1400,896
4.1420,656
4.1440,1040
4.1460,560
4.1480,928
4.1500,784
4.1520,400
4.1540,688
4.1560,800
4.1580,736
4.1600,784
4.1620,736
4.1640,704
4.1660,688
4.1680,304
4.1700,432
4.1720,432
4.1740,448
4.1760,608
4.1780,800
4.1800,912
4.1820,640
4.1840,400
4.1860,688
4.1880,288
4.1900,272
4.1920,2944
4.1940,752
4.1960,416
4.1980,1312
4.2000,912
4.2020,208
4.2040,512
4.2060,640
4.2080,896
4.2100,640
4.2120,544
4.2140,1120
4.2160,688
4.2180,848
4.2200,432
4.2220,480
4.2240,608
4.2260,464
4.2280,944
4.2300,688
4.2320,992
4.2340,1088
4.2360,640
4.2380,576
4.2400,944
4.2420,320
4.2440,816
4.2460,672
4.2480,416
4.2500,704
4.2520,1200
4.2540,768
4.2560,464
4.2580,704
4.2600,608
4.2620,512
4.2640,464
4.2660,800
4.2680,512
4.2700,1360
4.2720,864
4.2740,688
4.2760,1008
4.2780,1408
4.2800,512
4.2820,752
4.2840,528
4.2860,704
4.2880,448
4.2900,336
4.2920,544
4.2940,384
4.2960,736
4.2980,1216
4.3000,592
4.3020,512
4.3040,816
4.3060,704
4.3080,576
4.3100,576
4.3120,816
4.3140,800
4.3160,304
4.3180,304
4.3200,400
4.3220,672
4.3240,512
4.3260,416
4.3280,960
4.3300,880
4.3320,848
4.3340,480
4.3360,416
4.3380,2688
4.3400,944
4.3420,832
4.3440,464
4.3460,864
4.3480,832
4.3500,752
4.3520,912
4.3540,400
4.3560,720
4.3580,1728
4.3600,800
4.3620,432
4.3640,784
4.3660,448
4.3680,1744
4.3700,704
4.3720,656
4.3740,384
4.3760,304
4.3780,608
4.3800,1040
4.3820,768
4.3840,784
4.3860,1408
4.3880,832
4.3900,832
4.3920,512
4.3940,96
4.3960,656
4.3980,784
4.4000,496
4.4020,720
4.4040,832
4.4060,944
4.4080,928
4.4100,2080
4.4120,672
4.4140,752
4.4160,528
4.4180,960
4.4200,928
4.4220,832
4.4240,544
4.4260,560
4.4280,1584
4.4300,944
4.4320,416
4.4340,848
4.4360,400
4.4380,656
4.4400,736
4.4420,704
4.4440,1312
4.4460,640
4.4480,448
4.4500,2192
4.4520,464
4.4540,352
4.4560,928
4.4580,784
4.4600,560
4.4620,480
4.4640,976
4.4660,624
4.4680,656
4.4700,704
4.4720,1488
4.4740,448
4.4760,1616
4.4780,704
4.4800,640
4.4820,448
4.4840,224
4.4860,1408
4.4880,928
4.4900,400
4.4920,448
4.4940,944
4.4960,832
4.4980,384
4.5000,576
4.5020,1056
4.5040,656
4.5060,720
4.5080,448
4.5100,432
4.5120,1104
4.5140,640
4.5160,832
4.5180,576
4.5200,352
4.5220,432
4.5240,624
4.5260,1200
4.5280,1168
4.5300,640
4.5320,672
4.5340,480
4.5360,1184
4.5380,400
4.5400,704
4.5420,320
4.5440,736
4.5460,1104
4.5480,800
4.5500,384
4.5520,528
4.5540,656
4.5560,384
4.5580,752
4.5600,896
4.5620,624
4.5640,656
4.5660,800
4.5680,688
4.5700,432
4.5720,432
4.5740,496
4.5760,3088
4.5780,832
4.5800,2448
4.5820,400
4.5840,336
4.5860,720
4.5880,1296
4.5900,608
4.5920,720
4.5940,416
4.5960,672
4.5980,688
4.6000,1248
4.6020,1200
4.6040,960
4.6060,592
4.6080,432
4.6100,592
4.6120,512
4.6140,400
4.6160,624
4.6180,560
4.6200,192
4.6220,544
4.6240,1536
4.6260,656
4.6280,1168
4.6300,736
4.6320,528
4.6340,848
4.6360,800
4.6380,1824
4.6400,464
4.6420,656
4.6440,656
4.6460,592
4.6480,752
4.6500,656
4.6520,688
4.6540,560
4.6560,400
4.6580,336
4.6600,1216
4.6620,1280
4.6640,784
4.6660,512
4.6680,512
4.6700,560
4.6720,720
4.6740,576
4.6760,496
4.6780,448
4.6800,576
4.6820,1344
4.6840,416
4.6860,1488
4.6880,560
4.6900,800
4.6920,256
4.6940,592
4.6960,752
4.6980,672
4.7000,896
4.7020,560
4.7040,528
4.7060,800
4.7080,640
4.7100,784
4.7120,464
4.7140,720
4.7160,784
4.7180,896
4.7200,704
4.7220,1504
4.7240,592
4.7260,816
4.7280,752
4.7300,272
4.7320,1056
4.7340,848
4.7360,816
4.7380,320
4.7400,992
4.7420,768
4.7440,448
4.7460,688
4.7480,2784
4.7500,1008
4.7520,464
4.7540,592
4.7560,576
4.7580,800
4.7600,544
4.7620,1248
4.7640,976
4.7660,224
4.7680,464
4.7700,1216
4.7720,336
4.7740,704
4.7760,896
4.7780,736
4.7800,640
4.7820,1888
4.7840,1168
4.7860,432
4.7880,688
4.7900,288
4.7920,528
4.7940,656
4.7960,576
4.7980,640
4.8000,592
4.8020,464
4.8040,672
4.8060,640
4.8080,1072
4.8100,320
4.8120,816
4.8140,576
4.8160,464
4.8180,464
4.8200,2000
4.8220,3344
4.8240,1632
4.8260,464
4.8280,704
4.8300,400
4.8320,1680
4.8340,528
4.8360,720
4.8380,272
4.8400,576
4.8420,640
4.8440,656
4.8460,480
4.8480,464
4.8500,608
4.8520,512
4.8540,912
4.8560,1056
4.8580,704
4.8600,1920
4.8620,608
4.8640,976
4.8660,272
4.8680,1120
4.8700,784
4.8720,608
4.8740,688
4.8760,1088
4.8780,496
4.8800,576
4.8820,448
4.8840,768
4.8860,656
4.8880,608
4.8900,480
4.8920,848
4.8940,1776
4.8960,896
4.8980,1216
4.9000,608
4.9020,736
4.9040,752
4.9060,2832
4.9080,848
4.9100,720
4.9120,544
4.9140,544
4.9160,544
4.9180,240
4.9200,640
4.9220,224
4.9240,1248
4.9260,624
4.9280,960
4.9300,1216
4.9320,1296
4.9340,528
4.9360,720
4.9380,528
4.9400,544
4.9420,816
4.9440,608
4.9460,864
4.9480,640
4.9500,608
4.9520,400
4.9540,848
4.9560,160
4.9580,992
4.9600,560
4.9620,864
4.9640,688
4.9660,1328
4.9680,1424
4.9700,512
4.9720,1280
4.9740,992
4.9760,352
4.9780,800
4.9800,1056
4.9820,928
4.9840,512
4.9860,1024
4.9880,544
4.9900,1504
4.9920,480
4.9940,576
4.9960,816
4.9980,656
5.0000,608
5.0020,1376
5.0040,2480
5.0060,832
5.0080,432
5.0100,736
5.0120,528
5.0140,864
5.0160,784
5.0180,848
5.0200,720
5.0220,352
5.0240,832
5.0260,704
5.0280,1024
5.0300,576
5.0320,896
5.0340,528
5.0360,576
5.0380,704
5.0400,512
5.0420,672
5.0440,384
5.0460,400
5.0480,640
5.0500,1072
5.0520,432
5.0540,768
5.0560,688
5.0580,416
5.0600,1408
5.0620,976
5.0640,608
5.0660,512
5.0680,560
5.0700,768
5.0720,704
5.0740,720
5.0760,528
5.0780,448
5.0800,672
5.0820,672
5.0840,560
5.0860,880
5.0880,704
5.0900,688
5.0920,1344
5.0940,688
5.0960,480
5.0980,608
5.1000,400
5.1020,1280
5.1040,368
5.1060,608
5.1080,816
5.1100,464
5.1120,672
5.1140,656
5.1160,688
5.1180,1024
5.1200,592
5.1220,1664
5.1240,480
5.1260,672
5.1280,352
5.1300,464
5.1320,480
5.1340,848
5.1360,1504
5.1380,1376
5.1400,592
5.1420,1072
5.1440,1824
5.1460,1232
5.1480,768
5.1500,560
5.1520,576
5.1540,432
5.1560,944
5.1580,784
5.1600,400
5.1620,736
5.1640,800
5.1660,1168
5.1680,1088
5.1700,576
5.1720,336
5.1740,640
5.1760,1024
5.1780,768
5.1800,512
5.1820,432
5.1840,224
5.1860,928
5.1880,256
5.1900,784
5.1920,384
5.1940,368
5.1960,944
5.1980,784
5.2000,496
5.2020,272
5.2040,560
5.2060,304
5.2080,992
5.2100,1104
5.2120,1216
5.2140,2272
5.2160,736
5.2180,528
5.2200,560
5.2220,992
5.2240,576
5.2260,432
5.2280,720
5.2300,928
5.2320,320
5.2340,1152
5.2360,2352
5.2380,560
5.2400,400
5.2420,1088
5.2440,800
5.2460,880
5.2480,688
5.2500,736
5.2520,576
5.2540,704
5.2560,288
5.2580,352
5.2600,1344
5.2620,432
5.2640,1200
5.2660,544
5.2680,992
5.2700,400
5.2720,1408
5.2740,848
5.2760,512
5.2780,384
5.2800,288
5.2820,1264
5.2840,592
5.2860,592
5.2880,1120
5.2900,528
5.2920,352
5.2940,512
5.2960,0
5.2980,480
5.3000,704
5.3020,896
5.3040,336
5.3060,1216
5.3080,848
5.3100,816
5.3120,704
5.3140,800
5.3160,864
5.3180,1936
5.3200,864
5.3220,800
5.3240,544
5.3260,528
5.3280,688
5.3300,400
5.3320,784
5.3340,512
5.3360,976
5.3380,736
5.3400,944
5.3420,448
5.3440,736
5.3460,304
5.3480,5473
5.3500,3200
5.3520,512
5.3540,912
5.3560,1280
5.3580,528
5.3600,576
5.3620,3536
5.3640,736
5.3660,192
5.3680,400
5.3700,944
5.3720,864
5.3740,1952
5.3760,1616
5.3780,1056
5.3800,320
5.3820,384
5.3840,432
5.3860,1296
5.3880,688
5.3900,640
5.3920,1024
5.3940,1904
5.3960,848
5.3980,608
5.4000,656
5.4020,352
5.4040,432
5.4060,400
5.4080,400
5.4100,976
5.4120,448
5.4140,272
5.4160,224
5.4180,576
5.4200,304
5.4220,992
5.4240,976
5.4260,1488
5.4280,352
5.4300,1008
5.4320,640
5.4340,1968
5.4360,832
5.4380,1152
5.4400,1424
5.4420,432
5.4440,1056
5.4460,784
5.4480,528
5.4500,752
5.4520,832
5.4540,544
5.4560,576
5.4580,640
5.4600,1728
5.4620,992
5.4640,1040
5.4660,592
5.4680,608
5.4700,2224
5.4720,464
5.4740,448
5.4760,256
5.4780,1760
5.4800,688
5.4820,592
5.4840,864
5.4860,768
5.4880,352
5.4900,576
5.4920,864
5.4940,2752
5.4960,4241
5.4980,576
5.5000,272
5.5020,736
5.5040,720
5.5060,272
5.5080,976
5.5100,448
5.5120,688
5.5140,864
5.5160,544
5.5180,656
5.5200,576
5.5220,1328
5.5240,656
5.5260,992
5.5280,576
5.5300,384
5.5320,656
5.5340,352
5.5360,176
5.5380,592
5.5400,352
5.5420,720
5.5440,560
5.5460,512
5.5480,688
5.5500,672
5.5520,384
5.5540,464
5.5560,640
5.5580,688
5.5600,800
5.5620,912
5.5640,352
5.5660,672
5.5680,352
5.5700,848
5.5720,320
5.5740,736
5.5760,512
5.5780,688
5.5800,1024
5.5820,736
5.5840,1424
5.5860,672
5.5880,512
5.5900,720
5.5920,688
5.5940,784
5.5960,672
5.5980,400
5.6000,464
5.6020,640
5.6040,528
5.6060,448
5.6080,848
5.6100,480
5.6120,1152
5.6140,608
5.6160,656
5.6180,416
5.6200,528
5.6220,2000
5.6240,448
5.6260,576
5.6280,736
5.6300,480
5.6320,640
5.6340,1088
5.6360,512
5.6380,848
5.6400,2048
5.6420,400
5.6440,1200
5.6460,544
5.6480,416
5.6500,784
5.6520,432
5.6540,544
5.6560,896
5.6580,1168
5.6600,896
5.6620,1248
5.6640,944
5.6660,432
5.6680,416
5.6700,384
5.6720,1056
5.6740,384
5.6760,384
5.6780,320
5.6800,800
5.6820,512
5.6840,864
5.6860,784
5.6880,672
5.6900,464
5.6920,1200
5.6940,608
5.6960,576
5.6980,688
5.7000,1120
5.7020,1008
5.7040,448
5.7060,3408
5.7080,3280
5.7100,928
5.7120,736
5.7140,816
5.7160,816
5.7180,832
5.7200,1680
5.7220,1504
5.7240,944
5.7260,320
5.7280,1024
5.7300,704
5.7320,1488
5.7340,1344
5.7360,448
5.7380,720
5.7400,592
5.7420,624
5.7440,704
5.7460,720
5.7480,672
5.7500,848
5.7520,736
5.7540,880
5.7560,416
5.7580,688
5.7600,832
5.7620,1312
5.7640,720
5.7660,1232
5.7680,1328
5.7700,1824
5.7720,592
5.7740,800
5.7760,736
5.7780,608
5.7800,1152
5.7820,1952
5.7840,688
5.7860,992
5.7880,720
5.7900,464
5.7920,1296
5.7940,544
5.7960,784
5.7980,944
5.8000,192
5.8020,368
5.8040,928
5.8060,496
5.8080,784
5.8100,688
5.8120,656
5.8140,544
5.8160,464
5.8180,1136
5.8200,3808
5.8220,3664
5.8240,720
5.8260,944
5.8280,176
5.8300,848
5.8320,864
5.8340,560
5.8360,480
5.8380,400
5.8400,528
5.8420,1712
5.8440,512
5.8460,688
5.8480,464
5.8500,704
5.8520,704
5.8540,560
5.8560,304
5.8580,784
5.8600,1248
5.8620,512
5.8640,608
5.8660,16
5.8680,320
5.8700,528
5.8720,800
5.8740,720
5.8760,976
5.8780,704
5.8800,480
5.8820,560
5.8840,880
5.8860,768
5.8880,576
5.8900,512
5.8920,960
5.8940,864
5.8960,800
5.8980,512
5.9000,832
5.9020,464
5.9040,928
5.9060,352
5.9080,208
5.9100,864
5.9120,336
5.9140,304
5.9160,576
5.9180,592
5.9200,272
5.9220,320
5.9240,912
5.9260,448
5.9280,416
5.9300,432
5.9320,720
5.9340,1216
5.9360,464
5.9380,144
5.9400,704
5.9420,688
5.9440,704
5.9460,624
5.9480,656
5.9500,608
5.9520,1152
5.9540,640
5.9560,544
5.9580,384
5.9600,1472
5.9620,1808
5.9640,1584
5.9660,656
5.9680,688
5.9700,944
5.9720,768
5.9740,448
5.9760,576
5.9780,1152
5.9800,1360
5.9820,384
5.9840,1792
5.9860,656
5.9880,704
5.9900,800
5.9920,672
5.9940,336
5.9960,640
5.9980,480
6.0000,928
6.0020,704
6.0040,768
6.0060,352
6.0080,736
6.0100,672
6.0120,624
6.0140,832
6.0160,752
6.0180,336
6.0200,304
6.0220,304
6.0240,1216
6.0260,1184
6.0280,2048
6.0300,1248
6.0320,544
6.0340,384
6.0360,672
6.0380,608
6.0400,224
6.0420,528
6.0440,720
6.0460,1024
6.0480,544
6.0500,592
6.0520,656
6.0540,720
6.0560,544
6.0580,832
6.0600,848
6.0620,672
6.0640,672
6.0660,528
6.0680,768
6.0700,608
6.0720,768
6.0740,704
6.0760,2528
6.0780,7681
6.0800,672
6.0820,400
6.0840,544
6.0860,384
6.0880,1792
6.0900,1024
6.0920,480
6.0940,1760
6.0960,640
6.0980,2208
6.1000,432
6.1020,832
6.1040,1056
6.1060,576
6.1080,1424
6.1100,704
6.1120,608
6.1140,496
6.1160,1040
6.1180,992
6.1200,656
6.1220,400
6.1240,2784
6.1260,1280
6.1280,976
6.1300,672
6.1320,704
6.1340,2256
6.1360,1152
6.1380,752
6.1400,496
6.1420,2240
6.1440,672
6.1460,976
6.1480,480
6.1500,800
6.1520,1280
6.1540,480
6.1560,544
6.1580,512
6.1600,768
6.1620,688
6.1640,304
6.1660,576
6.1680,656
6.1700,608
6.1720,3264
6.1740,896
6.1760,592
6.1780,1568
6.1800,1072
6.1820,448
6.1840,784
6.1860,720
6.1880,608
6.1900,656
6.1920,560
6.1940,432
6.1960,640
6.1980,464
6.2000,752
6.2020,544
6.2040,2016
6.2060,800
6.2080,960
6.2100,656
6.2120,1600
6.2140,832
6.2160,336
6.2180,672
6.2200,976
6.2220,1456
6.2240,1024
6.2260,480
6.2280,1968
6.2300,1168
6.2320,544
6.2340,352
6.2360,512
6.2380,432
6.2400,704
6.2420,672
6.2440,1392
6.2460,912
6.2480,448
6.2500,480
6.2520,576
6.2540,896
6.2560,912
6.2580,688
6.2600,672
6.2620,1568
6.2640,864
6.2660,352
6.2680,1248
6.2700,3840
6.2720,1472
6.2740,544
6.2760,736
6.2780,352
6.2800,928
6.2820,768
6.2840,816
6.2860,224
6.2880,656
6.2900,576
6.2920,560
6.2940,448
6.2960,528
6.2980,848
6.3000,1744
6.3020,432
6.3040,864
6.3060,336
6.3080,608
6.3100,1072
6.3120,864
6.3140,464
6.3160,352
6.3180,1312
6.3200,704
6.3220,512
6.3240,448
6.3260,528
6.3280,816
6.3300,656
6.3320,464
6.3340,640
6.3360,6545
6.3380,6113
6.3400,976
6.3420,448
6.3440,400
6.3460,1184
6.3480,1424
6.3500,3136
6.3520,800
6.3540,928
6.3560,336
6.3580,1312
6.3600,656
6.3620,656
6.3640,1200
6.3660,800
6.3680,1168
6.3700,1792
6.3720,1488
6.3740,672
6.3760,1456
6.3780,416
6.3800,528
6.3820,1072
6.3840,544
6.3860,752
6.3880,1232
6.3900,2976
6.3920,864
6.3940,5009
6.3960,2448
6.3980,496
6.4000,1408
6.4020,608
6.4040,3632
6.4060,6833
6.4080,7057
6.4100,896
6.4120,896
6.4140,544
6.4160,1824
6.4180,848
6.4200,1040
6.4220,688
6.4240,832
6.4260,0
6.4280,1632
6.4300,768
6.4320,448
6.4340,640
6.4360,400
6.4380,336
6.4400,736
6.4420,1184
6.4440,608
6.4460,896
6.4480,960
6.4500,1296
6.4520,3568
6.4540,1280
6.4560,912
6.4580,960
6.4600,1328
6.4620,544
6.4640,672
6.4660,784
6.4680,1088
6.4700,2944
6.4720,864
6.4740,1392
6.4760,960
6.4780,912
6.4800,432
6.4820,2144
6.4840,672
6.4860,544
6.4880,400
6.4900,688
6.4920,1264
6.4940,848
6.4960,1296
6.4980,752
6.5000,800
6.5020,1216
6.5040,1408
6.5060,576
6.5080,672
6.5100,4545
6.5120,1168
6.5140,2816
6.5160,800
6.5180,1552
6.5200,944
6.5220,816
6.5240,896
6.5260,992
6.5280,560
6.5300,640
6.5320,688
6.5340,624
6.5360,1152
6.5380,1536
6.5400,816
6.5420,432
6.5440,608
6.5460,1168
6.5480,528
6.5500,784
6.5520,1008
6.5540,592
6.5560,416
6.5580,1712
6.5600,704
6.5620,640
6.5640,2256
6.5660,688
6.5680,400
6.5700,1296
6.5720,848
6.5740,1472
6.5760,2192
6.5780,976
6.5800,640
6.5820,336
6.5840,720
6.5860,656
6.5880,928
6.5900,1408
6.5920,2608
6.5940,1024
6.5960,816
6.5980,800
6.6000,656
6.6020,576
6.6040,0
6.6060,2224
6.6080,5313
6.6100,2384
6.6120,6785
6.6140,4241
6.6160,864
6.6180,1632
6.6200,1856
6.6220,1024
6.6240,848
6.6260,480
6.6280,1344
6.6300,480
6.6320,1296
6.6340,512
6.6360,3520
6.6380,336
6.6400,1568
6.6420,1024
6.6440,1520
6.6460,1232
6.6480,1008
6.6500,1056
6.6520,496
6.6540,1824
6.6560,1200
6.6580,928
6.6600,784
6.6620,704
6.6640,800
6.6660,800
6.6680,400
6.6700,608
6.6720,3504
6.6740,736
6.6760,3744
6.6780,640
6.6800,912
6.6820,2160
6.6840,1184
6.6860,816
6.6880,1088
6.6900,3456
6.6920,4161
6.6940,896
6.6960,1088
6.6980,1216
6.7000,864
6.7020,1088
6.7040,768
6.7060,3376
6.7080,1360
6.7100,800
6.7120,528
6.7140,672
6.7160,720
6.7180,1440
6.7200,672
6.7220,7585
6.7240,8258
6.7260,912
6.7280,512
6.7300,1344
6.7320,1120
6.7340,3808
6.7360,976
6.7380,1264
6.7400,448
6.7420,1280
6.7440,1376
6.7460,5217
6.7480,2768
6.7500,768
6.7520,672
6.7540,752
6.7560,736
6.7580,5761
6.7600,1536
6.7620,2400
6.7640,3936
6.7660,640
6.7680,1152
6.7700,848
6.7720,1296
6.7740,2512
6.7760,656
6.7780,928
6.7800,720
6.7820,3584
6.7840,4048
6.7860,1120
6.7880,3392
6.7900,6625
6.7920,2016
6.7940,1840
6.7960,2128
6.7980,464
6.8000,656
6.8020,992
6.8040,400
6.8060,1024
6.8080,1456
6.8100,1248
6.8120,720
6.8140,848
6.8160,1408
6.8180,8578
6.8200,592
6.8220,1632
6.8240,1072
6.8260,768
6.8280,3856
6.8300,2000
6.8320,720
6.8340,1152
6.8360,5297
6.8380,6881
6.8400,8514
6.8420,3792
6.8440,1440
6.8460,832
6.8480,11970
6.8500,8049
6.8520,1232
6.8540,784
6.8560,1024
6.8580,2512
6.8600,7089
6.8620,1456
6.8640,2944
6.8660,5841
6.8680,3376
6.8700,704
6.8720,2560
6.8740,864
6.8760,1104
6.8780,1552
6.8800,1248
6.8820,640
6.8840,6737
6.8860,1536
6.8880,640
6.8900,1296
6.8920,1504
6.8940,1152
6.8960,1040
6.8980,14947
6.9000,7617
6.9020,7665
6.9040,640
6.9060,2608
6.9080,2624
6.9100,3520
6.9120,1424
6.9140,1520
6.9160,8738
6.9180,1344
6.9200,8466
6.9220,2496
6.9240,2384
6.9260,6193
6.9280,1920
6.9300,1840
6.9320,896
6.9340,2752
6.9360,4369
6.9380,1040
6.9400,5089
6.9420,3456
6.9440,7425
6.9460,1488
6.9480,672
6.9500,1424
6.9520,4145
6.9540,3712
6.9560,5025
6.9580,1152
6.9600,2688
6.9620,9138
6.9640,1568
6.9660,1216
6.9680,1680
6.9700,1344
6.9720,928
6.9740,2944
6.9760,4673
6.9780,8338
6.9800,1664
6.9820,5953
6.9840,768
6.9860,1216
6.9880,5633
6.9900,5761
6.9920,656
6.9940,1088
6.9960,1872
6.9980,5441
7.0000,2656
7.0020,1440
7.0040,4481
7.0060,6689
7.0080,1824
7.0100,14163
7.0120,960
7.0140,4961
7.0160,1120
7.0180,1056
7.0200,1264
7.0220,5377
7.0240,800
7.0260,576
7.0280,8194
7.0300,6993
7.0320,4945
7.0340,5601
7.0360,11522
7.0380,1312
7.0400,896
7.0420,9762
7.0440,6449
7.0460,16211
7.0480,4337
7.0500,5729
7.0520,496
7.0540,3200
7.0560,7553
7.0580,4000
7.0600,7105
7.0620,10178
7.0640,11570
7.0660,848
7.0680,4625
7.0700,1888
7.0720,864
7.0740,1424
7.0760,1200
7.0780,720
7.0800,2128
7.0820,20805
7.0840,3472
7.0860,4817
7.0880,1024
7.0900,3552
7.0920,1184
7.0940,4945
7.0960,10578
7.0980,11058
7.1000,1968
7.1020,1152
7.1040,13955
7.1060,3008
7.1080,3424
7.1100,1600
7.1120,8370
7.1140,10130
7.1160,992
7.1180,23573
7.1200,1248
7.1220,1088
7.1240,1104
7.1260,9106
7.1280,4529
7.1300,3536
7.1320,1280
7.1340,2576
7.1360,9634
7.1380,10898
7.1400,13011
7.1420,2000
7.1440,4032
7.1460,640
7.1480,3808
7.1500,1232
7.1520,7041
7.1540,4097
7.1560,16339
7.1580,9586
7.1600,8674
7.1620,1056
7.1640,912
7.1660,2960
7.1680,8946
7.1700,4193
7.1720,1280
7.1740,2880
7.1760,8674
7.1780,8210
7.1800,832
7.1820,1872
7.1840,4529
7.1860,8706
7.1880,9010
7.1900,9170
7.1920,10322
7.1940,3488
7.1960,480
7.1980,3904
7.2000,3888
7.2020,3424
7.2040,14819
7.2060,13171
7.2080,2112
7.2100,3552
7.2120,20388
7.2140,2736
7.2160,4705
7.2180,1184
7.2200,10194
7.2220,640
7.2240,14611
7.2260,1456
7.2280,8866
7.2300,3888
7.2320,10722
7.2340,848
7.2360,4513
7.2380,6449
7.2400,2832
7.2420,1808
7.2440,1456
7.2460,1456
7.2480,1568
7.2500,1248
7.2520,6817
7.2540,17764
7.2560,5313
7.2580,1616
7.2600,10450
7.2620,7601
7.2640,20100
7.2660,17252
7.2680,9426
7.2700,2992
7.2720,1280
7.2740,5585
7.2760,7729
7.2780,4465
7.2800,1360
7.2820,11362
7.2840,4481
7.2860,3088
7.2880,4048
7.2900,3664
7.2920,5473
7.2940,13891
7.2960,7729
7.2980,1248
7.3000,16179
7.3020,15635
7.3040,784
7.3060,2128
7.3080,1376
7.3100,3584
7.3120,6817
7.3140,13683
7.3160,2112
7.3180,5169
7.3200,19780
7.3220,2656
7.3240,18100
7.3260,1200
7.3280,992
7.3300,11602
7.3320,976
7.3340,6225
7.3360,2320
7.3380,8194
7.3400,7073
7.3420,5201
7.3440,8802
7.3460,14259
7.3480,6881
7.3500,15203
7.3520,1600
7.3540,19892
7.3560,14979
7.3580,2320
7.3600,19748
7.3620,6337
7.3640,4929
7.3660,3552
7.3680,25894
7.3700,2336
7.3720,6433
7.3740,7937
7.3760,14563
7.3780,6401
7.3800,7969
7.3820,9202
7.3840,4449
7.3860,5025
7.3880,6177
7.3900,2576
7.3920,2016
7.3940,3808
7.3960,4641
7.3980,4513
7.4000,2768
7.4020,3744
7.4040,2368
7.4060,7713
7.4080,1536
7.4100,13379
7.4120,15171
7.4140,17572
7.4160,8210
7.4180,5281
7.4200,7393
7.4220,944
7.4240,22197
7.4260,11858
7.4280,32071
7.4300,20741
7.4320,4945
7.4340,1792
7.4360,9314
7.4380,8994
7.4400,5585
7.4420,688
7.4440,3344
7.4460,2688
7.4480,1344
7.4500,8642
7.4520,1088
7.4540,1936
7.4560,2544
7.4580,4113
7.4600,13219
7.4620,6657
7.4640,11090
7.4660,4897
7.4680,656
7.4700,21717
7.4720,15603
7.4740,5457
7.4760,11106
7.4780,13331
7.4800,11330
7.4820,1712
7.4840,17060
7.4860,1824
7.4880,2048
7.4900,7041
7.4920,1856
7.4940,2768
7.4960,4609
7.4980,1664
7.5000,6433
7.5020,6193
7.5040,1360
7.5060,1088
7.5080,608
7.5100,8962
7.5120,7633
7.5140,2176
7.5160,18516
7.5180,2336
7.5200,13235
7.5220,9442
7.5240,1696
7.5260,1424
7.5280,1488
7.5300,2432
7.5320,21685
7.5340,8177
7.5360,13091
7.5380,2640
7.5400,10578
7.5420,2656
7.5440,2832
7.5460,2000
7.5480,4865
7.5500,1024
7.5520,2272
7.5540,1168
7.5560,6145
7.5580,2768
7.5600,9154
7.5620,6225
7.5640,544
7.5660,27718
7.5680,11810
7.5700,9810
7.5720,5729
7.5740,800
7.5760,3312
7.5780,3296
7.5800,2000
7.5820,18820
7.5840,5345
7.5860,22949
7.5880,18868
7.5900,1216
7.5920,800
7.5940,704
7.5960,14563
7.5980,5969
7.6000,17972
7.6020,8658
7.6040,944
7.6060,6977
7.6080,5521
7.6100,3552
7.6120,640
7.6140,9234
7.6160,1280
7.6180,1248
7.6200,1232
7.6220,960
7.6240,5729
7.6260,12178
7.6280,8177
7.6300,1744
7.6320,3552
7.6340,13507
7.6360,2304
7.6380,20757
7.6400,6817
7.6420,6049
7.6440,11858
7.6460,8274
7.6480,4032
7.6500,5057
7.6520,672
7.6540,15923
7.6560,1856
7.6580,736
7.6600,960
7.6620,3264
7.6640,4833
7.6660,7313
7.6680,6081
7.6700,8177
7.6720,17732
7.6740,22053
7.6760,4385
7.6780,14883
7.6800,11794
7.6820,5809
7.6840,8129
7.6860,704
7.6880,864
7.6900,672
7.6920,704
7.6940,11618
7.6960,5297
7.6980,14995
7.7000,1280
7.7020,1312
7.7040,6113
7.7060,4881
7.7080,11650
7.7100,4257
7.7120,13971
7.7140,3184
7.7160,2000
7.7180,8914
7.7200,1824
7.7220,4721
7.7240,5345
7.7260,5297
7.7280,17188
7.7300,2560
7.7320,37001
7.7340,14003
7.7360,1504
7.7380,19172
7.7400,10562
7.7420,11810
7.7440,10818
7.7460,8770
7.7480,24918
7.7500,9810
7.7520,1952
7.7540,11234
7.7560,16003
7.7580,6065
7.7600,22613
7.7620,8177
7.7640,3360
7.7660,9794
7.7680,1568
7.7700,6353
7.7720,944
7.7740,1216
7.7760,10962
7.7780,1360
7.7800,1120
7.7820,4817
7.7840,1840
7.7860,3824
7.7880,7809
7.7900,4881
7.7920,4577
7.7940,2768
7.7960,8194
7.7980,8722
7.8000,4961
7.8020,13523
7.8040,12595
7.8060,2336
7.8080,17828
7.8100,3616
7.8120,1024
7.8140,1184
7.8160,33320
7.8180,19748
7.8200,23221
7.8220,4337
7.8240,2528
7.8260,7745
7.8280,672
7.8300,3936
7.8320,1936
7.8340,14371
7.8360,15443
7.8380,1408
7.8400,10978
7.8420,1312
7.8440,3344
7.8460,8258
7.8480,3072
7.8500,1504
7.8520,2192
7.8540,8001
7.8560,13395
7.8580,2816
7.8600,1280
7.8620,4097
7.8640,768
7.8660,12082
7.8680,12547
7.8700,1792
7.8720,3280
7.8740,5537
7.8760,8177
7.8780,1216
7.8800,8017
7.8820,17156
7.8840,1376
7.8860,14419
7.8880,3808
7.8900,4305
7.8920,6849
7.8940,5985
7.8960,992
7.8980,480
7.9000,17140
7.9020,8177
7.9040,16580
7.9060,9218
7.9080,3120
7.9100,5953
7.9120,6065
7.9140,27526
7.9160,8530
7.9180,7953
7.9200,8226
7.9220,9650
7.9240,5553
7.9260,15459
7.9280,7201
7.9300,2064
7.9320,896
7.9340,18788
7.9360,6737
7.9380,18980
7.9400,4849
7.9420,1536
7.9440,592
7.9460,1120
7.9480,2096
7.9500,14835
7.9520,12611
7.9540,5441
7.9560,3456
7.9580,9682
7.9600,10322
7.9620,1104
7.9640,2768
7.9660,848
7.9680,2256
7.9700,2224
7.9720,1792
7.9740,17940
7.9760,9938
7.9780,4529
7.9800,3872
7.9820,7041
7.9840,5873
7.9860,8194
7.9880,10050
7.9900,1104
7.9920,4385
7.9940,14259
7.9960,9186
7.9980,6449
8.0000,1616
8.0020,1200
8.0040,2832
8.0060,3360
8.0080,2128
8.0100,5713
8.0120,1584
8.0140,5777
8.0160,19892
8.0180,6385
8.0200,26118
8.0220,19044
8.0240,10722
8.0260,7217
8.0280,28807
8.0300,816
8.0320,4289
8.0340,8898
8.0360,18228
8.0380,7025
8.0400,5457
8.0420,2096
8.0440,944
8.0460,1152
8.0480,3200
8.0500,12242
8.0520,25702
8.0540,36568
8.0560,33624
8.0580,1152
8.0600,6577
8.0620,2336
8.0640,2528
8.0660,10354
8.0680,5937
8.0700,13411
8.0720,5121
8.0740,14835
8.0760,12691
8.0780,6417
8.0800,1200
8.0820,4753
8.0840,832
8.0860,14291
8.0880,6273
8.0900,480
8.0920,9810
8.0940,4449
8.0960,2128
8.0980,9682
8.1000,19012
8.1020,7377
8.1040,272
8.1060,2016
8.1080,4561
8.1100,21029
8.1120,5761
8.1140,1712
8.1160,1184
8.1180,8097
8.1200,6865
8.1220,17828
8.1240,2128
8.1260,5217
8.1280,1808
8.1300,4113
8.1320,4097
8.1340,1952
8.1360,960
8.1380,784
8.1400,16227
8.1420,5137
8.1440,4945
8.1460,3472
8.1480,3472
8.1500,9186
8.1520,9138
8.1540,1568
8.1560,8978
8.1580,29655
8.1600,736
8.1620,6593
8.1640,4513
8.1660,1152
8.1680,1216
8.1700,8177
8.1720,3168
8.1740,12595
8.1760,2336
8.1780,6849
8.1800,9618
8.1820,656
8.1840,1312
8.1860,21701
8.1880,9378
8.1900,1216
8.1920,1888
8.1940,2304
8.1960,4449
8.1980,11282
8.2000,9906
8.2020,4385
8.2040,8242
8.2060,24565
8.2080,816
8.2100,3680
8.2120,2752
8.2140,6241
8.2160,2992
8.2180,1520
8.2200,6033
8.2220,9042
8.2240,3216
8.2260,4064
8.2280,5201
8.2300,1392
8.2320,11826
8.2340,7553
8.2360,2048
8.2380,1808
8.2400,19988
8.2420,5809
8.2440,3440
8.2460,6641
8.2480,1728
8.2500,3232
8.2520,4561
8.2540,10706
8.2560,736
8.2580,832
8.2600,4113
8.2620,14051
8.2640,4641
8.2660,4241
8.2680,7057
8.2700,1856
8.2720,3040
8.2740,15875
8.2760,2384
8.2780,1088
8.2800,1376
8.2820,1824
8.2840,1728
8.2860,4769
8.2880,1056
8.2900,17156
8.2920,1360
8.2940,7825
8.2960,7121
8.2980,1120
8.3000,6289
8.3020,11074
8.3040,15587
8.3060,7889
8.3080,17076
8.3100,1152
8.3120,25894
8.3140,912
8.3160,6321
8.3180,12371
8.3200,6193
8.3220,6913
8.3240,5217
8.3260,1008
8.3280,15571
8.3300,1552
8.3320,7361
8.3340,6657
8.3360,6225
8.3380,13251
8.3400,18692
8.3420,4881
8.3440,11490
8.3460,2768
8.3480,1168
8.3500,6497
8.3520,9426
8.3540,11010
8.3560,7505
8.3580,2688
8.3600,5585
8.3620,2192
8.3640,5249
8.3660,12435
8.3680,1520
8.3700,25990
8.3720,2464
8.3740,5121
8.3760,480
8.3780,5041
8.3800,1840
8.3820,1616
8.3840,6801
8.3860,1248
8.3880,8017
8.3900,30295
8.3920,3680
8.3940,11986
8.3960,2896
8.3980,5057
8.4000,20981
8.4020,2192
8.4040,17428
8.4060,2144
8.4080,4529
8.4100,1424
8.4120,656
8.4140,2432
8.4160,14499
8.4180,1280
8.4200,2704
8.4220,576
8.4240,1760
8.4260,6673
8.4280,5249
8.4300,3856
8.4320,4577
8.4340,21221
8.4360,9138
8.4380,12563
8.4400,3696
8.4420,13187
8.4440,13395
8.4460,7441
8.4480,5937
8.4500,8274
8.4520,3008
8.4540,5121
8.4560,2176
8.4580,3120
8.4600,11698
8.4620,2544
8.4640,12899
8.4660,16804
8.4680,11810
8.4700,672
8.4720,5217
8.4740,6881
8.4760,1872
8.4780,2880
8.4800,2320
8.4820,1008
8.4840,2080
8.4860,6785
8.4880,17380
8.4900,26310
8.4920,10530
8.4940,5649
8.4960,6353
8.4980,1168
8.5000,1664
8.5020,1936
8.5040,2240
8.5060,16291
8.5080,10034
8.5100,11218
8.5120,2080
8.5140,800
8.5160,5393
8.5180,15347
8.5200,2368
8.5220,16035
8.5240,3360
8.5260,8962
8.5280,9602
8.5300,5985
8.5320,8097
8.5340,21733
8.5360,20549
8.5380,12371
8.5400,5153
8.5420,10610
8.5440,976
8.5460,23845
8.5480,960
8.5500,13651
8.5520,1424
8.5540,1888
8.5560,17444
8.5580,12002
8.5600,2864
8.5620,1296
8.5640,7041
8.5660,3776
8.5680,8834
8.5700,4032
8.5720,1424
8.5740,11426
8.5760,2352
8.5780,768
8.5800,5137
8.5820,3296
8.5840,3872
8.5860,3984
8.5880,5633
8.5900,1632
8.5920,8274
8.5940,5681
8.5960,15955
8.5980,992
8.6000,3472
8.6020,7329
8.6040,13747
8.6060,22613
8.6080,13459
8.6100,4769
8.6120,2464
8.6140,720
8.6160,928
8.6180,1632
8.6200,7921
8.6220,9026
8.6240,4769
8.6260,20725
8.6280,12499
8.6300,928
8.6320,5969
8.6340,768
8.6360,3968
8.6380,7521
8.6400,4689
8.6420,11650
8.6440,1408
8.6460,7505
8.6480,4417
8.6500,544
8.6520,3264
8.6540,7361
8.6560,1056
8.6580,5953
8.6600,576
8.6620,1792
8.6640,1936
8.6660,1792
8.6680,1024
8.6700,592
8.6720,18132
8.6740,16452
8.6760,2560
8.6780,2400
8.6800,9746
8.6820,2864
8.6840,15539
8.6860,4000
8.6880,6465
8.6900,4209
8.6920,8882
8.6940,10130
8.6960,2464
8.6980,10194
8.7000,20468
8.7020,4593
8.7040,832
8.7060,8722
8.7080,19188
8.7100,656
8.7120,5537
8.7140,8690
8.7160,10818
8.7180,4417
8.7200,688
8.7220,1280
8.7240,5825
8.7260,1920
8.7280,1152
8.7300,944
8.7320,10738
8.7340,2144
8.7360,9762
8.7380,2016
8.7400,2528
8.7420,12034
8.7440,7729
8.7460,12931
8.7480,1200
8.7500,1184
8.7520,10754
8.7540,2304
8.7560,17188
8.7580,4016
8.7600,7425
8.7620,19588
8.7640,8866
8.7660,7489
8.7680,8658
8.7700,6417
8.7720,4545
8.7740,1104
8.7760,1296
8.7780,13507
8.7800,2720
8.7820,4032
8.7840,5585
8.7860,13411
8.7880,15571
8.7900,4401
8.7920,7585
8.7940,4177
8.7960,880
8.7980,12771
8.8000,6689
8.8020,608
8.8040,25814
8.8060,2064
8.8080,11746
8.8100,4193
8.8120,16644
8.8140,1072
8.8160,4257
8.8180,2688
8.8200,13827
8.8220,4417
8.8240,8866
8.8260,1152
8.8280,1408
8.8300,1488
8.8320,1520
8.8340,2336
8.8360,27238
8.8380,26246
8.8400,8386
8.8420,3600
8.8440,18884
8.8460,11202
8.8480,7201
8.8500,7169
8.8520,43690
8.8540,3360
8.8560,8338
8.8580,1552
8.8600,11426
8.8620,1120
8.8640,3424
8.8660,12931
8.8680,19684
8.8700,16612
8.8720,13363
8.8740,2816
8.8760,1104
8.8780,3040
8.8800,26406
8.8820,7297
8.8840,5313
8.8860,15891
8.8880,3888
8.8900,1504
8.8920,848
8.8940,3680
8.8960,3488
8.8980,13283
8.9000,2208
8.9020,12467
8.9040,4881
8.9060,1120
8.9080,1184
8.9100,5665
8.9120,1968
8.9140,1632
8.9160,1584
8.9180,3376
8.9200,6017
8.9220,1680
8.9240,12226
8.9260,2912
8.9280,4305
8.9300,19268
8.9320,11506
8.9340,7009
8.9360,1504
8.9380,20613
8.9400,3856
8.9420,5057
8.9440,8466
8.9460,960
8.9480,864
8.9500,11554
8.9520,15043
8.9540,608
8.9560,10162
8.9580,21253
8.9600,3792
8.9620,912
8.9640,2368
8.9660,15827
8.9680,1456
8.9700,14211
8.9720,1376
8.9740,18836
8.9760,8450
8.9780,4657
8.9800,1360
8.9820,10594
8.9840,3488
8.9860,2080
8.9880,1760
8.9900,5249
8.9920,816
8.9940,8177
8.9960,1088
8.9980,2176
9.0000,33384
9.0020,25990
9.0040,30663
9.0060,912
9.0080,3728
9.0100,11490
9.0120,3968
9.0140,4241
9.0160,2704
9.0180,15555
9.0200,12675
9.0220,8226
9.0240,15891
9.0260,11506
9.0280,8177
9.0300,7505
9.0320,18244
9.0340,1280
9.0360,864
9.0380,832
9.0400,4225
9.0420,19588
9.0440,11154
9.0460,5217
9.0480,3776
9.0500,10706
9.0520,2480
9.0540,25174
9.0560,2096
9.0580,8482
9.0600,21205
9.0620,5601
9.0640,928
9.0660,10834
9.0680,2912
9.0700,15955
9.0720,26310
9.0740,10642
9.0760,23013
9.0780,3808
9.0800,864
9.0820,1328
9.0840,1680
9.0860,7457
9.0880,1024
9.0900,3072
9.0920,4209
9.0940,4529
9.0960,800
9.0980,3680
9.1000,10066
9.1020,816
9.1040,1632
9.1060,2832
9.1080,560
9.1100,10178
9.1120,4625
9.1140,22341
9.1160,1872
9.1180,1488
9.1200,13235
9.1220,7761
9.1240,13235
9.1260,9410
9.1280,23093
9.1300,12178
9.1320,16195
9.1340,16227
9.1360,1280
9.1380,2304
9.1400,6289
9.1420,5505
9.1440,1120
9.1460,7521
9.1480,9922
9.1500,14883
9.1520,3792
9.1540,10466
9.1560,15523
9.1580,11010
9.1600,7041
9.1620,8338
9.1640,768
9.1660,4449
9.1680,13139
9.1700,4913
9.1720,6433
9.1740,5649
9.1760,6657
9.1780,11826
9.1800,1296
9.1820,5073
9.1840,3552
9.1860,15459
9.1880,5297
9.1900,5169
9.1920,1232
9.1940,1040
9.1960,640
9.1980,1552
9.2000,2336
9.2020,3728
9.2040,17556
9.2060,2384
9.2080,7569
9.2100,12291
9.2120,30503
9.2140,25830
9.2160,2128
9.2180,21141
9.2200,26710
9.2220,3392
9.2240,18404
9.2260,2832
9.2280,3952
9.2300,800
9.2320,4048
9.2340,2576
9.2360,2064
9.2380,2560
9.2400,12547
9.2420,2432
9.2440,6545
9.2460,5569
9.2480,8177
9.2500,1280
9.2520,1232
9.2540,848
9.2560,5761
9.2580,5889
9.2600,720
9.2620,2304
9.2640,5137
9.2660,6913
9.2680,2176
9.2700,1200
9.2720,2256
9.2740,11778
9.2760,4769
9.2780,5697
9.2800,2080
9.2820,6529
9.2840,2992
9.2860,16756
9.2880,8610
9.2900,11186
9.2920,16291
9.2940,9042
9.2960,14755
9.2980,1664
9.3000,5729
9.3020,1968
9.3040,9138
9.3060,1424
9.3080,4833
9.3100,8129
9.3120,9122
9.3140,4545
9.3160,4497
9.3180,4161
9.3200,1136
9.3220,720
9.3240,720
9.3260,3168
9.3280,4449
9.3300,2096
9.3320,4561
9.3340,1056
9.3360,37913
9.3380,9442
9.3400,27734
9.3420,4961
9.3440,16067
9.3460,16195
9.3480,1968
9.3500,19188
9.3520,1280
9.3540,5553
9.3560,7329
9.3580,640
9.3600,6657
9.3620,1232
9.3640,9954
9.3660,19636
9.3680,21621
9.3700,1888
9.3720,2896
9.3740,2208
9.3760,5665
9.3780,9890
9.3800,2224
9.3820,3248
9.3840,10210
9.3860,1184
9.3880,1472
9.3900,1968
9.3920,4129
9.3940,16355
9.3960,4913
9.3980,1632
9.4000,2688
9.4020,17956
9.4040,11090
9.4060,17508
9.4080,3872
9.4100,5793
9.4120,1360
9.4140,1104
9.4160,816
9.4180,5777
9.4200,528
9.4220,3968
9.4240,10002
9.4260,24453
9.4280,16708
9.4300,14947
9.4320,8210
9.4340,928
9.4360,8194
9.4380,9426
9.4400,1920
9.4420,7217
9.4440,3984
9.4460,14243
9.4480,1936
9.4500,4064
9.4520,4833
9.4540,1600
9.4560,5905
9.4580,10290
9.4600,22405
9.4620,16147
9.4640,7857
9.4660,8626
9.4680,7217
9.4700,11602
9.4720,3360
9.4740,7393
9.4760,6689
9.4780,18308
9.4800,3264
9.4820,1008
9.4840,5185
9.4860,7073
9.4880,592
9.4900,12226
9.4920,6529
9.4940,1056
9.4960,19796
9.4980,6177
9.5000,15075
9.5020,21669
9.5040,13507
9.5060,1264
9.5080,6481
9.5100,912
9.5120,4817
9.5140,1488
9.5160,5873
9.5180,2208
9.5200,2608
9.5220,5729
9.5240,21765
9.5260,992
9.5280,3344
9.5300,9666
9.5320,944
9.5340,960
9.5360,3024
9.5380,5969
9.5400,960
9.5420,8033
9.5440,8177
9.5460,2608
9.5480,5921
9.5500,6657
9.5520,8594
9.5540,8177
9.5560,2048
9.5580,1232
9.5600,11554
9.5620,10658
9.5640,13923
9.5660,1456
9.5680,2096
9.5700,2144
9.5720,19268
9.5740,1920
9.5760,4433
9.5780,6017
9.5800,1520
9.5820,1200
9.5840,7713
9.5860,8370
9.5880,8882
9.5900,3824
9.5920,13875
9.5940,1248
9.5960,2800
9.5980,7329
9.6000,6529
9.6020,18372
9.6040,11858
9.6060,35256
9.6080,6993
9.6100,18308
9.6120,13411
9.6140,5473
9.6160,2224
9.6180,7393
9.6200,3424
9.6220,2080
9.6240,1104
9.6260,3456
9.6280,4097
9.6300,5841
9.6320,7217
9.6340,2128
9.6360,10274
9.6380,1040
9.6400,832
9.6420,1696
9.6440,3664
9.6460,16836
9.6480,1536
9.6500,10930
9.6520,5713
9.6540,3088
9.6560,32904
9.6580,9746
9.6600,2592
9.6620,4000
9.6640,6097
9.6660,13027
9.6680,1696
9.6700,16195
9.6720,3680
9.6740,10370
9.6760,3760
9.6780,2304
9.6800,688
9.6820,17972
9.6840,10066
9.6860,14227
9.6880,11954
9.6900,15763
9.6920,528
9.6940,1024
9.6960,5809
9.6980,5473
9.7000,2000
9.7020,9026
9.7040,1872
9.7060,11810
9.7080,5953
9.7100,944
9.7120,3392
9.7140,912
9.7160,3136
9.7180,960
9.7200,12979
9.7220,11346
9.7240,1344
9.7260,3472
9.7280,4881
9.7300,1792
9.7320,25702
9.7340,3376
9.7360,15043
9.7380,13315
9.7400,9874
9.7420,8194
9.7440,22101
9.7460,16452
9.7480,8145
9.7500,4673
9.7520,4305
9.7540,6225
9.7560,4241
9.7580,3008
9.7600,10066
9.7620,2592
9.7640,1456
9.7660,1840
9.7680,3232
9.7700,4977
9.7720,4833
9.7740,17300
9.7760,27926
9.7780,11426
9.7800,2208
9.7820,1712
9.7840,5297
9.7860,2704
9.7880,4241
9.7900,5889
9.7920,1184
9.7940,14515
9.7960,16019
9.7980,2320
9.8000,18596
9.8020,14275
9.8040,1248
9.8060,1744
9.8080,19508
9.8100,1184
9.8120,10066
9.8140,704
9.8160,8338
9.8180,3584
9.8200,2736
9.8220,10018
9.8240,5201
9.8260,2832
9.8280,960
9.8300,1024
9.8320,13507
9.8340,2192
9.8360,5473
9.8380,14899
9.8400,20196
9.8420,14307
9.8440,12226
9.8460,9442
9.8480,1824
9.8500,976
9.8520,12867
9.8540,2544
9.8560,37129
9.8580,2448
9.8600,10594
9.8620,14515
9.8640,4225
9.8660,704
9.8680,3856
9.8700,1120
9.8720,6401
9.8740,1536
9.8760,4097
9.8780,10514
9.8800,14419
9.8820,1680
9.8840,8370
9.8860,848
9.8880,25638
9.8900,16484
9.8920,4753
9.8940,1088
9.8960,6705
9.8980,1840
9.9000,480
9.9020,2800
9.9040,1296
9.9060,896
9.9080,10338
9.9100,1616
9.9120,6417
9.9140,17268
9.9160,3520
9.9180,1520
9.9200,1152
9.9220,9042
9.9240,1136
9.9260,9010
9.9280,1216
9.9300,6145
9.9320,3760
9.9340,8258
9.9360,6305
9.9380,4561
9.9400,2864
9.9420,1840
9.9440,5825
9.9460,528
9.9480,21381
9.9500,13763
9.9520,6449
9.9540,4000
9.9560,6881
9.9580,848
9.9600,3776
9.9620,18388
9.9640,5569
9.9660,1360
9.9680,2624
9.9700,1072
9.9720,1024
9.9740,7121
9.9760,2112
9.9780,6369
9.9800,6977
9.9820,1504
9.9840,2144
9.9860,5793
9.9880,9554
9.9900,4305
9.9920,1584
9.9940,4609
9.9960,2112
9.9980,976
10.0000,1184
10.0020,304
10.0040,736
10.0060,5665
10.0080,4705
10.0100,4561
10.0120,10978
10.0140,736
10.0160,1328
10.0180,4257
10.0200,1632
10.0220,2944
10.0240,4817
10.0260,2768
10.0280,16339
10.0300,1120
10.0320,3312
10.0340,1024
10.0360,4113
10.0380,6561
10.0400,15603
10.0420,9026
10.0440,5681
10.0460,1472
10.0480,7089
10.0500,1104
10.0520,1328
10.0540,14883
10.0560,2800
10.0580,3872
10.0600,6705
10.0620,10594
10.0640,1408
10.0660,2624
10.0680,7969
10.0700,13027
10.0720,1712
10.0740,11746
10.0760,12323
10.0780,7601
10.0800,4593
10.0820,1792
10.0840,20132
10.0860,3840
10.0880,8754
10.0900,976
10.0920,1216
10.0940,1984
10.0960,8642
10.0980,7585
10.1000,10562
10.1020,1536
10.1040,1104
10.1060,12082
10.1080,0
10.1100,960
10.1120,1936
10.1140,7393
10.1160,4097
10.1180,2464
10.1200,21205
10.1220,9250
10.1240,5297
10.1260,23061
10.1280,1920
10.1300,9042
10.1320,2752
10.1340,1488
10.1360,9106
10.1380,6545
10.1400,640
10.1420,14435
10.1440,7953
10.1460,1472
10.1480,752
10.1500,4705
10.1520,17028
10.1540,992
10.1560,6273
10.1580,13987
10.1600,4737
10.1620,1072
10.1640,4449
10.1660,14243
10.1680,4129
10.1700,2560
10.1720,10930
10.1740,3152
10.1760,1376
10.1780,9234
10.1800,1328
10.1820,8177
10.1840,720
10.1860,1120
10.1880,7313
10.1900,1840
10.1920,2320
10.1940,8177
10.1960,7633
10.1980,7713
10.2000,4673
10.2020,2656
10.2040,7345
10.2060,4961
10.2080,1296
10.2100,864
10.2120,1568
10.2140,5601
10.2160,1344
10.2180,8097
10.2200,2704
10.2220,1376
10.2240,4193
10.2260,800
10.2280,3712
10.2300,4641
10.2320,8898
10.2340,720
10.2360,6929
10.2380,960
10.2400,1472
10.2420,5281
10.2440,3376
10.2460,2496
10.2480,448
10.2500,3024
10.2520,3552
10.2540,3136
10.2560,7617
10.2580,16163
10.2600,2560
10.2620,1680
10.2640,16131
10.2660,4961
10.2680,5729
10.2700,11714
10.2720,1616
10.2740,3072
10.2760,22661
10.2780,26070
10.2800,6593
10.2820,1200
10.2840,1488
10.2860,3696
10.2880,3376
10.2900,992
10.2920,1552
10.2940,1344
10.2960,3824
10.2980,5985
10.3000,11410
10.3020,960
10.3040,3104
10.3060,2528
10.3080,5169
10.3100,1920
10.3120,2656
10.3140,1024
10.3160,7089
10.3180,9938
10.3200,1344
10.3220,15363
10.3240,8498
10.3260,16996
10.3280,6353
10.3300,2256
10.3320,1152
10.3340,640
10.3360,5105
10.3380,1824
10.3400,14035
10.3420,3712
10.3440,4145
10.3460,5537
10.3480,9106
10.3500,3840
10.3520,7137
10.3540,1760
10.3560,928
10.3580,2176
10.3600,1248
10.3620,2768
10.3640,3616
10.3660,1360
10.3680,6081
10.3700,3136
10.3720,1664
10.3740,8850
10.3760,672
10.3780,800
10.3800,704
10.3820,4385
10.3840,656
10.3860,6545
10.3880,8177
10.3900,6881
10.3920,2384
10.3940,960
10.3960,400
10.3980,880
10.4000,912
10.4020,1488
10.4040,736
10.4060,784
10.4080,1040
10.4100,5889
10.4120,4401
10.4140,976
10.4160,1216
10.4180,8514
10.4200,912
10.4220,3200
10.4240,912
10.4260,2256
10.4280,1024
10.4300,9394
10.4320,7089
10.4340,1568
10.4360,976
10.4380,1696
10.4400,2752
10.4420,16003
10.4440,1696
10.4460,6257
10.4480,1952
10.4500,1088
10.4520,1440
10.4540,9186
10.4560,2176
10.4580,2288
10.4600,1248
10.4620,6337
10.4640,752
10.4660,3936
10.4680,688
10.4700,848
10.4720,3200
10.4740,928
10.4760,5665
10.4780,1984
10.4800,1568
10.4820,1824
10.4840,992
10.4860,2960
10.4880,1040
10.4900,864
10.4920,1408
10.4940,1408
10.4960,2736
10.4980,4016
10.5000,6433
10.5020,8754
10.5040,1328
10.5060,480
10.5080,2128
10.5100,1408
10.5120,8322
10.5140,2096
10.5160,1744
10.5180,7425
10.5200,3408
10.5220,5025
10.5240,6097
10.5260,8065
10.5280,976
10.5300,1888
10.5320,1072
10.5340,5313
10.5360,640
10.5380,3264
10.5400,1328
10.5420,576
10.5440,4016
10.5460,528
10.5480,2912
10.5500,464
10.5520,432
10.5540,1024
10.5560,2064
10.5580,3024
10.5600,4433
10.5620,2240
10.5640,1504
10.5660,1360
10.5680,1168
10.5700,1088
10.5720,832
10.5740,2128
10.5760,5681
10.5780,1296
10.5800,2688
10.5820,2176
10.5840,704
10.5860,992
10.5880,896
10.5900,800
10.5920,448
10.5940,944
10.5960,912
10.5980,656
10.6000,592
10.6020,1040
10.6040,2112
10.6060,2272
10.6080,3808
10.6100,1456
10.6120,2304
10.6140,640
10.6160,656
10.6180,1344
10.6200,1056
10.6220,736
10.6240,1424
10.6260,1168
10.6280,1200
10.6300,784
10.6320,4593
10.6340,13411
10.6360,19812
10.6380,1920
10.6400,9410
10.6420,1488
10.6440,752
10.6460,1104
10.6480,5249
10.6500,2400
10.6520,720
10.6540,912
10.6560,1392
10.6580,1040
10.6600,1376
10.6620,1568
10.6640,1728
10.6660,1536
10.6680,752
10.6700,1536
10.6720,544
10.6740,592
10.6760,4257
10.6780,640
10.6800,464
10.6820,848
10.6840,608
10.6860,704
10.6880,4000
10.6900,3712
10.6920,6817
10.6940,3360
10.6960,848
10.6980,1056
10.7000,960
10.7020,768
10.7040,3984
10.7060,4929
10.7080,1664
10.7100,656
10.7120,2064
10.7140,528
10.7160,944
10.7180,2016
10.7200,384
10.7220,5697
10.7240,1920
10.7260,3936
10.7280,2880
10.7300,1120
10.7320,688
10.7340,736
10.7360,1360
10.7380,672
10.7400,448
10.7420,1920
10.7440,3808
10.7460,544
10.7480,1984
10.7500,1728
10.7520,928
10.7540,512
10.7560,800
10.7580,960
10.7600,480
10.7620,1696
10.7640,736
10.7660,720
10.7680,1088
10.7700,528
10.7720,1952
10.7740,624
10.7760,688
10.7780,688
10.7800,1888
10.7820,720
10.7840,736
10.7860,560
10.7880,18596
10.7900,10722
10.7920,1280
10.7940,608
10.7960,2992
10.7980,1248
10.8000,1456
10.8020,1104
10.8040,512
10.8060,640
10.8080,736
10.8100,1376
10.8120,656
10.8140,1360
10.8160,2528
10.8180,11298
10.8200,11106
10.8220,752
10.8240,976
10.8260,672
10.8280,704
10.8300,6017
10.8320,7249
10.8340,5297
10.8360,688
10.8380,3472
10.8400,1600
10.8420,1152
10.8440,1744
10.8460,1696
10.8480,4929
10.8500,640
10.8520,5153
10.8540,944
10.8560,4593
10.8580,3936
10.8600,720
10.8620,1136
10.8640,1104
10.8660,704
10.8680,816
10.8700,1104
10.8720,3792
10.8740,816
10.8760,2720
10.8780,1888
10.8800,1312
10.8820,832
10.8840,1232
10.8860,5073
10.8880,768
10.8900,1088
10.8920,2976
10.8940,2560
10.8960,4097
10.8980,7121
10.9000,1120
10.9020,1104
10.9040,448
10.9060,992
10.9080,432
10.9100,672
10.9120,656
10.9140,1344
10.9160,944
10.9180,1728
10.9200,1168
10.9220,720
10.9240,848
10.9260,880
10.9280,512
10.9300,640
10.9320,512
10.9340,480
10.9360,816
10.9380,1904
10.9400,640
10.9420,656
10.9440,1728
10.9460,768
10.9480,592
10.9500,512
10.9520,768
10.9540,1376
10.9560,2176
10.9580,6561
10.9600,19220
10.9620,816
10.9640,720
10.9660,6913
10.9680,4289
10.9700,928
10.9720,784
10.9740,2528
10.9760,5297
10.9780,7713
10.9800,3520
10.9820,2848
10.9840,9090
10.9860,6033
10.9880,704
10.9900,640
10.9920,2784
10.9940,1184
10.9960,576
10.9980,1040
11.0000,1104
11.0020,816
11.0040,416
11.0060,320
11.0080,432
11.0100,320
11.0120,1152
11.0140,1216
11.0160,800
11.0180,768
11.0200,1040
11.0220,704
11.0240,528
11.0260,3536
11.0280,1936
11.0300,1920
11.0320,896
11.0340,3408
11.0360,4657
11.0380,928
11.0400,1344
11.0420,640
11.0440,784
11.0460,2240
11.0480,656
11.0500,2224
11.0520,1312
11.0540,896
11.0560,688
11.0580,528
11.0600,1312
11.0620,1600
11.0640,640
11.0660,848
11.0680,1472
11.0700,992
11.0720,672
11.0740,800
11.0760,688
11.0780,816
11.0800,1584
11.0820,2976
11.0840,3104
11.0860,1920
11.0880,3216
11.0900,3648
11.0920,3232
11.0940,2096
11.0960,1712
11.0980,560
11.1000,624
11.1020,560
11.1040,2528
11.1060,8498
11.1080,12851
11.1100,640
11.1120,736
11.1140,736
11.1160,496
11.1180,1072
11.1200,512
11.1220,528
11.1240,768
11.1260,640
11.1280,720
11.1300,400
11.1320,1072
11.1340,1920
11.1360,752
11.1380,2592
11.1400,480
11.1420,576
11.1440,2144
11.1460,3472
11.1480,944
11.1500,864
11.1520,432
11.1540,976
11.1560,1712
11.1580,1248
11.1600,6305
11.1620,1424
11.1640,672
11.1660,704
11.1680,944
11.1700,784
11.1720,1424
11.1740,464
11.1760,576
11.1780,3504
11.1800,2976
11.1820,736
11.1840,2384
11.1860,1072
11.1880,688
11.1900,1824
11.1920,608
11.1940,688
11.1960,1168
11.1980,1488
11.2000,512
11.2020,528
11.2040,1248
11.2060,672
11.2080,1232
11.2100,448
11.2120,768
11.2140,1632
11.2160,2368
11.2180,800
11.2200,432
11.2220,7393
11.2240,1456
11.2260,560
11.2280,3472
11.2300,11666
11.2320,10002
11.2340,1184
11.2360,2928
11.2380,576
11.2400,448
11.2420,1104
11.2440,448
11.2460,816
11.2480,1120
11.2500,1408
11.2520,1072
11.2540,3696
11.2560,1616
11.2580,2656
11.2600,1648
11.2620,544
11.2640,576
11.2660,608
11.2680,1056
11.2700,720
11.2720,816
11.2740,384
11.2760,1408
11.2780,848
11.2800,912
11.2820,784
11.2840,512
11.2860,1072
11.2880,1504
11.2900,464
11.2920,752
11.2940,1040
11.2960,608
11.2980,4064
11.3000,2240
11.3020,1072
11.3040,3120
11.3060,2144
11.3080,1312
11.3100,752
11.3120,448
11.3140,560
11.3160,2480
11.3180,1344
11.3200,544
11.3220,768
11.3240,528
11.3260,1424
11.3280,1600
11.3300,384
11.3320,1152
11.3340,1168
11.3360,576
11.3380,720
11.3400,1184
11.3420,4865
11.3440,976
11.3460,1152
11.3480,672
11.3500,640
11.3520,768
11.3540,2288
11.3560,8081
11.3580,2752
11.3600,816
11.3620,784
11.3640,1312
11.3660,736
11.3680,976
11.3700,864
11.3720,944
11.3740,1120
11.3760,448
11.3780,1936
11.3800,752
11.3820,1104
11.3840,768
11.3860,800
11.3880,1216
11.3900,512
11.3920,352
11.3940,816
11.3960,288
11.3980,0
11.4000,640
11.4020,656
11.4040,1216
11.4060,1216
11.4080,736
11.4100,3520
11.4120,784
11.4140,896
11.4160,784
11.4180,1024
11.4200,1072
11.4220,1120
11.4240,416
11.4260,2848
11.4280,752
11.4300,464
11.4320,1088
11.4340,704
11.4360,1184
11.4380,272
11.4400,1376
11.4420,464
11.4440,720
11.4460,1104
11.4480,608
11.4500,592
11.4520,768
11.4540,1072
11.4560,784
11.4580,4177
11.4600,528
11.4620,352
11.4640,10546
11.4660,5393
11.4680,544
11.4700,960
11.4720,1888
11.4740,768
11.4760,688
11.4780,1104
11.4800,1072
11.4820,816
11.4840,480
11.4860,1536
11.4880,1088
11.4900,512
11.4920,544
11.4940,544
11.4960,672
11.4980,944
11.5000,1408
11.5020,960
11.5040,400
11.5060,592
11.5080,400
11.5100,6833
11.5120,4177
11.5140,5313
11.5160,960
11.5180,960
11.5200,528
11.5220,224
11.5240,1232
11.5260,208
11.5280,720
11.5300,1728
11.5320,1712
11.5340,832
11.5360,464
11.5380,976
11.5400,1008
11.5420,2480
11.5440,3376
11.5460,1104
11.5480,592
11.5500,496
11.5520,736
11.5540,1344
11.5560,736
11.5580,768
11.5600,192
11.5620,512
11.5640,336
11.5660,1216
11.5680,800
11.5700,1216
11.5720,576
11.5740,1248
11.5760,640
11.5780,688
11.5800,592
11.5820,2272
11.5840,2592
11.5860,544
11.5880,4048
11.5900,1552
11.5920,960
11.5940,1120
11.5960,832
11.5980,656
11.6000,864
11.6020,592
11.6040,512
11.6060,832
11.6080,496
11.6100,1152
11.6120,672
11.6140,464
11.6160,1920
11.6180,1328
11.6200,960
11.6220,6625
11.6240,2080
11.6260,624
11.6280,304
11.6300,608
11.6320,1856
11.6340,864
11.6360,1568
11.6380,464
11.6400,416
11.6420,1904
11.6440,608
11.6460,1248
11.6480,4945
11.6500,2416
11.6520,576
11.6540,512
11.6560,464
11.6580,5057
11.6600,1808
11.6620,768
11.6640,400
11.6660,656
11.6680,368
11.6700,800
11.6720,704
11.6740,336
11.6760,1296
11.6780,1856
11.6800,640
11.6820,1440
11.6840,512
11.6860,592
11.6880,640
11.6900,640
11.6920,560
11.6940,1552
11.6960,720
11.6980,656
11.7000,832
11.7020,6449
11.7040,3680
11.7060,2208
11.7080,784
11.7100,512
11.7120,352
11.7140,992
11.7160,880
11.7180,1728
11.7200,560
11.7220,1040
11.7240,800
11.7260,144
11.7280,592
11.7300,496
11.7320,192
11.7340,656
11.7360,5889
11.7380,1024
11.7400,384
11.7420,736
11.7440,624
11.7460,848
11.7480,432
11.7500,560
11.7520,1040
11.7540,1040
11.7560,2144
11.7580,2096
11.7600,480
11.7620,432
11.7640,688
11.7660,672
11.7680,768
11.7700,1216
11.7720,608
11.7740,672
11.7760,1520
11.7780,400
11.7800,432
11.7820,544
11.7840,688
11.7860,528
11.7880,1424
11.7900,512
11.7920,1584
11.7940,448
11.7960,224
11.7980,816
11.8000,672
11.8020,3472
11.8040,1472
11.8060,336
11.8080,768
11.8100,1664
11.8120,416
11.8140,768
11.8160,896
11.8180,640
11.8200,720
11.8220,1056
11.8240,432
11.8260,944
11.8280,1088
11.8300,1024
11.8320,592
11.8340,2368
11.8360,1104
11.8380,3296
11.8400,480
11.8420,384
11.8440,384
11.8460,592
11.8480,672
11.8500,560
11.8520,512
11.8540,576
11.8560,416
11.8580,832
11.8600,816
11.8620,400
11.8640,736
11.8660,1824
11.8680,768
11.8700,480
11.8720,704
11.8740,2368
11.8760,1040
11.8780,608
11.8800,1024
11.8820,592
11.8840,528
11.8860,656
11.8880,336
11.8900,928
11.8920,464
11.8940,656
11.8960,432
11.8980,1120
11.9000,576
11.9020,288
11.9040,480
11.9060,1088
11.9080,928
11.9100,1008
11.9120,1024
11.9140,976
11.9160,1232
11.9180,608
11.9200,672
11.9220,752
11.9240,1360
11.9260,672
11.9280,544
11.9300,720
11.9320,1024
11.9340,1104
11.9360,1280
11.9380,688
11.9400,1072
11.9420,1024
11.9440,1168
11.9460,768
11.9480,1824
11.9500,720
11.9520,512
11.9540,432
11.9560,1472
11.9580,1120
11.9600,1024
11.9620,512
11.9640,3120
11.9660,5665
11.9680,528
11.9700,1200
11.9720,2896
11.9740,400
11.9760,528
11.9780,1600
11.9800,992
11.9820,1216
11.9840,1184
11.9860,640
11.9880,416
11.9900,816
11.9920,4353
11.9940,1616
11.9960,384
11.9980,512
12.0000,528
12.0020,336
12.0040,448
12.0060,544
12.0080,304
12.0100,1088
12.0120,1552
12.0140,624
12.0160,784
12.0180,976
12.0200,608
12.0220,528
12.0240,800
12.0260,560
12.0280,2208
12.0300,720
12.0320,336
12.0340,784
12.0360,656
12.0380,768
12.0400,320
12.0420,7025
12.0440,976
12.0460,1120
12.0480,496
12.0500,528
12.0520,592
12.0540,672
12.0560,864
12.0580,720
12.0600,944
12.0620,1184
12.0640,368
12.0660,1040
12.0680,912
12.0700,736
12.0720,6945
12.0740,1424
12.0760,1152
12.0780,2256
12.0800,448
12.0820,784
12.0840,1456
12.0860,1472
12.0880,2352
12.0900,1568
12.0920,640
12.0940,1504
12.0960,1760
12.0980,544
12.1000,416
12.1020,1120
12.1040,2096
12.1060,656
12.1080,688
12.1100,672
12.1120,864
12.1140,224
12.1160,432
12.1180,432
12.1200,448
12.1220,352
12.1240,544
12.1260,640
12.1280,352
12.1300,480
12.1320,560
12.1340,1456
12.1360,688
12.1380,1504
12.1400,1744
12.1420,768
12.1440,1488
12.1460,1184
12.1480,720
12.1500,496
12.1520,592
12.1540,656
12.1560,656
12.1580,576
12.1600,992
12.1620,1664
12.1640,704
12.1660,1840
12.1680,416
12.1700,560
12.1720,2304
12.1740,896
12.1760,640
12.1780,272
12.1800,336
12.1820,208
12.1840,896
12.1860,992
12.1880,576
12.1900,1024
12.1920,1024
12.1940,3424
12.1960,1104
12.1980,912
12.2000,6881
12.2020,944
12.2040,640
12.2060,4961
12.2080,1472
12.2100,8626
12.2120,448
12.2140,944
12.2160,1808
12.2180,816
12.2200,400
12.2220,320
12.2240,976
12.2260,640
12.2280,1424
12.2300,464
12.2320,800
12.2340,448
12.2360,928
12.2380,960
12.2400,1280
12.2420,992
12.2440,736
12.2460,528
12.2480,208
12.2500,1104
12.2520,672
12.2540,1856
12.2560,608
12.2580,736
12.2600,960
12.2620,384
12.2640,592
12.2660,592
12.2680,432
12.2700,960
12.2720,512
12.2740,400
12.2760,400
12.2780,976
12.2800,384
12.2820,2080
12.2840,672
12.2860,960
12.2880,976
12.2900,480
12.2920,560
12.2940,592
12.2960,416
12.2980,112
12.3000,608
12.3020,512
12.3040,480
12.3060,816
12.3080,2048
12.3100,2112
12.3120,1072
12.3140,1472
12.3160,416
12.3180,400
12.3200,448
12.3220,352
12.3240,720
12.3260,400
12.3280,576
12.3300,816
12.3320,480
12.3340,608
12.3360,528
12.3380,464
12.3400,448
12.3420,928
12.3440,1680
12.3460,720
12.3480,640
12.3500,464
12.3520,976
12.3540,704
12.3560,1792
12.3580,192
12.3600,768
12.3620,464
12.3640,1792
12.3660,560
12.3680,5153
12.3700,1104
12.3720,1104
12.3740,1728
12.3760,1312
12.3780,272
12.3800,272
12.3820,720
12.3840,416
12.3860,656
12.3880,3872
12.3900,2144
12.3920,912
12.3940,368
12.3960,1408
12.3980,960
12.4000,544
12.4020,640
12.4040,944
12.4060,256
12.4080,560
12.4100,912
12.4120,1168
12.4140,2304
12.4160,5569
12.4180,432
12.4200,1232
12.4220,1904
12.4240,2048
12.4260,1104
12.4280,240
12.4300,544
12.4320,848
12.4340,1152
12.4360,560
12.4380,464
12.4400,2720
12.4420,832
12.4440,960
12.4460,560
12.4480,464
12.4500,640
12.4520,608
12.4540,560
12.4560,736
12.4580,464
12.4600,1184
12.4620,352
12.4640,816
12.4660,800
12.4680,464
12.4700,2704
12.4720,992
12.4740,624
12.4760,608
12.4780,928
12.4800,544
12.4820,688
12.4840,688
12.4860,528
12.4880,1056
12.4900,384
12.4920,640
12.4940,752
12.4960,144
12.4980,800
12.5000,336
12.5020,544
12.5040,576
12.5060,656
12.5080,2672
12.5100,4129
12.5120,2256
12.5140,544
12.5160,416
12.5180,1600
12.5200,1472
12.5220,832
12.5240,640
12.5260,912
12.5280,464
12.5300,528
12.5320,768
12.5340,832
12.5360,448
12.5380,1152
12.5400,512
12.5420,448
12.5440,512
12.5460,768
12.5480,1280
12.5500,1328
12.5520,688
12.5540,592
12.5560,544
12.5580,432
12.5600,1104
12.5620,608
12.5640,768
12.5660,1760
12.5680,1312
12.5700,672
12.5720,624
12.5740,1328
12.5760,2720
12.5780,720
12.5800,2752
12.5820,1440
12.5840,960
12.5860,832
12.5880,816
12.5900,480
12.5920,688
12.5940,560
12.5960,560
12.5980,784
12.6000,1264
12.6020,1424
12.6040,384
12.6060,816
12.6080,928
12.6100,2048
12.6120,3008
12.6140,1168
12.6160,4481
12.6180,656
12.6200,6945
12.6220,7649
12.6240,544
12.6260,1280
12.6280,1056
12.6300,640
12.6320,1184
12.6340,2528
12.6360,1744
12.6380,7553
12.6400,3264
12.6420,1552
12.6440,5969
12.6460,4929
12.6480,816
12.6500,528
12.6520,1360
12.6540,336
12.6560,2176
12.6580,1072
12.6600,624
12.6620,816
12.6640,560
12.6660,704
12.6680,432
12.6700,784
12.6720,640
12.6740,832
12.6760,624
12.6780,560
12.6800,736
12.6820,336
12.6840,592
12.6860,576
12.6880,1952
12.6900,704
12.6920,1472
12.6940,864
12.6960,672
12.6980,736
12.7000,480
12.7020,400
12.7040,656
12.7060,688
12.7080,848
12.7100,720
12.7120,608
12.7140,1456
12.7160,384
12.7180,656
12.7200,1216
12.7220,720
12.7240,160
12.7260,2400
12.7280,800
12.7300,448
12.7320,544
12.7340,3568
12.7360,6561
12.7380,1088
12.7400,944
12.7420,1120
12.7440,1248
12.7460,1712
12.7480,1120
12.7500,1360
12.7520,736
12.7540,2144
12.7560,752
12.7580,432
12.7600,1824
12.7620,672
12.7640,560
12.7660,288
12.7680,928
12.7700,1424
12.7720,384
12.7740,896
12.7760,944
12.7780,1024
12.7800,784
12.7820,2016
12.7840,3168
12.7860,608
12.7880,384
12.7900,1040
12.7920,1440
12.7940,688
12.7960,1040
12.7980,480
12.8000,896
12.8020,864
12.8040,640
12.8060,560
12.8080,480
12.8100,896
12.8120,656
12.8140,512
12.8160,640
12.8180,1168
12.8200,880
12.8220,448
12.8240,608
12.8260,880
12.8280,640
12.8300,736
12.8320,752
12.8340,640
12.8360,688
12.8380,1136
12.8400,1968
12.8420,528
12.8440,352
12.8460,592
12.8480,6993
12.8500,3232
12.8520,4577
12.8540,1680
12.8560,2272
12.8580,688
12.8600,1424
12.8620,672
12.8640,640
12.8660,272
12.8680,816
12.8700,432
12.8720,320
12.8740,1216
12.8760,1600
12.8780,2256
12.8800,672
12.8820,928
12.8840,592
12.8860,592
12.8880,880
12.8900,2224
12.8920,1952
12.8940,2432
12.8960,704
12.8980,592
12.9000,784
12.9020,784
12.9040,464
12.9060,688
12.9080,1152
12.9100,784
12.9120,432
12.9140,1568
12.9160,576
12.9180,816
12.9200,1232
12.9220,944
12.9240,1472
12.9260,1088
12.9280,480
12.9300,464
12.9320,832
12.9340,480
12.9360,608
12.9380,864
12.9400,640
12.9420,800
12.9440,624
12.9460,640
12.9480,864
12.9500,880
12.9520,864
12.9540,1040
12.9560,1616
12.9580,1088
12.9600,1200
12.9620,672
12.9640,560
12.9660,416
12.9680,848
12.9700,320
12.9720,400
12.9740,4417
12.9760,4289
12.9780,1664
12.9800,1216
12.9820,5057
12.9840,1696
12.9860,3040
12.9880,2080
12.9900,768
12.9920,736
12.9940,448
12.9960,576
12.9980,2192
13.0000,992
13.0020,1424
13.0040,832
13.0060,704
13.0080,576
13.0100,672
13.0120,480
13.0140,608
13.0160,624
13.0180,736
13.0200,1696
13.0220,1056
13.0240,592
13.0260,704
13.0280,2368
13.0300,864
13.0320,576
13.0340,416
13.0360,912
13.0380,4561
13.0400,1104
13.0420,480
13.0440,560
13.0460,656
13.0480,976
13.0500,576
13.0520,528
13.0540,384
13.0560,5713
13.0580,2240
13.0600,1696
13.0620,1408
13.0640,368
13.0660,1584
13.0680,2336
13.0700,1488
13.0720,528
13.0740,560
13.0760,1072
13.0780,688
13.0800,592
13.0820,576
13.0840,544
13.0860,608
13.0880,576
13.0900,1056
13.0920,768
13.0940,720
13.0960,2336
13.0980,1216
13.1000,448
13.1020,448
13.1040,704
13.1060,4225
13.1080,4273
13.1100,352
13.1120,560
13.1140,496
13.1160,480
13.1180,736
13.1200,1200
13.1220,208
13.1240,1424
13.1260,768
13.1280,1024
13.1300,480
13.1320,1376
13.1340,784
13.1360,656
13.1380,592
13.1400,928
13.1420,608
13.1440,928
13.1460,1488
13.1480,608
13.1500,672
13.1520,1408
13.1540,384
13.1560,272
13.1580,512
13.1600,864
13.1620,320
13.1640,1360
13.1660,1248
13.1680,432
13.1700,688
13.1720,592
13.1740,656
13.1760,832
13.1780,1152
13.1800,448
13.1820,3408
13.1840,3152
13.1860,4689
13.1880,1408
13.1900,1184
13.1920,784
13.1940,1344
13.1960,6881
13.1980,1760
13.2000,3120
13.2020,1280
13.2040,352
13.2060,1568
13.2080,496
13.2100,4241
13.2120,768
13.2140,1184
13.2160,912
13.2180,656
13.2200,704
13.2220,640
13.2240,1104
13.2260,1104
13.2280,1072
13.2300,448
13.2320,1104
13.2340,704
13.2360,1680
13.2380,1408
13.2400,592
13.2420,1696
13.2440,1744
13.2460,272
13.2480,2240
13.2500,1488
13.2520,768
13.2540,1488
13.2560,1104
13.2580,1664
13.2600,976
13.2620,848
13.2640,848
13.2660,1072
13.2680,1824
13.2700,528
13.2720,592
13.2740,1536
13.2760,1344
13.2780,848
13.2800,1056
13.2820,608
13.2840,576
13.2860,480
13.2880,800
13.2900,816
13.2920,3888
13.2940,3504
13.2960,704
13.2980,336
13.3000,816
13.3020,1072
13.3040,592
13.3060,3536
13.3080,848
13.3100,560
13.3120,928
13.3140,656
13.3160,1408
13.3180,2016
13.3200,5121
13.3220,6657
13.3240,2128
13.3260,816
13.3280,1328
13.3300,416
13.3320,960
13.3340,720
13.3360,528
13.3380,1360
13.3400,400
13.3420,928
13.3440,1408
13.3460,1344
13.3480,2144
13.3500,880
13.3520,768
13.3540,1232
13.3560,1168
13.3580,752
13.3600,784
13.3620,912
13.3640,1024
13.3660,432
13.3680,736
13.3700,448
13.3720,544
13.3740,3248
13.3760,1104
13.3780,1200
13.3800,912
13.3820,928
13.3840,1440
13.3860,2064
13.3880,2208
13.3900,1696
13.3920,944
13.3940,1504
13.3960,800
13.3980,704
13.4000,528
13.4020,688
13.4040,384
13.4060,1184
13.4080,1072
13.4100,800
13.4120,976
13.4140,1408
13.4160,784
13.4180,800
13.4200,1152
13.4220,800
13.4240,960
13.4260,432
13.4280,5569
13.4300,3808
13.4320,1520
13.4340,544
13.4360,2096
13.4380,736
13.4400,576
13.4420,864
13.4440,1536
13.4460,608
13.4480,2384
13.4500,560
13.4520,640
13.4540,832
13.4560,432
13.4580,592
13.4600,704
13.4620,5601
13.4640,3840
13.4660,1936
13.4680,864
13.4700,672
13.4720,400
13.4740,608
13.4760,1376
13.4780,720
13.4800,912
13.4820,976
13.4840,976
13.4860,800
13.4880,576
13.4900,1072
13.4920,1040
13.4940,688
13.4960,800
13.4980,576
13.5000,416
13.5020,592
13.5040,3008
13.5060,432
13.5080,992
13.5100,608
13.5120,2240
13.5140,1376
13.5160,896
13.5180,720
13.5200,832
13.5220,656
13.5240,560
13.5260,1072
13.5280,640
13.5300,832
13.5320,544
13.5340,576
13.5360,480
13.5380,1376
13.5400,896
13.5420,6353
13.5440,912
13.5460,592
13.5480,656
13.5500,1184
13.5520,1280
13.5540,1024
13.5560,768
13.5580,2288
13.5600,1248
13.5620,656
13.5640,704
13.5660,768
13.5680,912
13.5700,944
13.5720,464
13.5740,592
13.5760,8466
13.5780,1856
13.5800,1968
13.5820,1312
13.5840,2720
13.5860,656
13.5880,2608
13.5900,1488
13.5920,592
13.5940,1520
13.5960,528
13.5980,528
13.6000,2560
13.6020,256
13.6040,320
13.6060,1792
13.6080,384
13.6100,432
13.6120,4865
13.6140,2896
13.6160,784
13.6180,400
13.6200,1840
13.6220,1216
13.6240,2016
13.6260,720
13.6280,752
13.6300,528
13.6320,960
13.6340,1104
13.6360,768
13.6380,784
13.6400,912
13.6420,736
13.6440,560
13.6460,1184
13.6480,2736
13.6500,1952
13.6520,736
13.6540,736
13.6560,880
13.6580,6273
13.6600,1088
13.6620,1056
13.6640,736
13.6660,1168
13.6680,1104
13.6700,400
13.6720,784
13.6740,1840
13.6760,736
13.6780,640
13.6800,688
13.6820,640
13.6840,752
13.6860,768
13.6880,640
13.6900,944
13.6920,512
13.6940,688
13.6960,768
13.6980,6913
13.7000,2096
13.7020,608
13.7040,1312
13.7060,4417
13.7080,3376
13.7100,848
13.7120,528
13.7140,992
13.7160,544
13.7180,1488
13.7200,768
13.7220,928
13.7240,944
13.7260,928
13.7280,1504
13.7300,384
13.7320,1104
13.7340,1152
13.7360,1200
13.7380,1168
13.7400,5121
13.7420,1728
13.7440,432
13.7460,1360
13.7480,672
13.7500,864
13.7520,688
13.7540,768
13.7560,800
13.7580,1376
13.7600,848
13.7620,864
13.7640,1104
13.7660,688
13.7680,912
13.7700,928
13.7720,304
13.7740,2624
13.7760,5281
13.7780,704
13.7800,1216
13.7820,496
13.7840,592
13.7860,848
13.7880,816
13.7900,640
13.7920,544
13.7940,672
13.7960,544
13.7980,944
13.8000,576
13.8020,992
13.8040,304
13.8060,848
13.8080,1616
13.8100,864
13.8120,480
13.8140,336
13.8160,1616
13.8180,2064
13.8200,640
13.8220,1040
13.8240,800
13.8260,1536
13.8280,2976
13.8300,1152
13.8320,720
13.8340,512
13.8360,1152
13.8380,2832
13.8400,2544
13.8420,4032
13.8440,1664
13.8460,656
13.8480,608
13.8500,736
13.8520,480
13.8540,768
13.8560,1600
13.8580,464
13.8600,592
13.8620,384
13.8640,272
13.8660,528
13.8680,784
13.8700,832
13.8720,592
13.8740,1072
13.8760,1232
13.8780,4705
13.8800,464
13.8820,272
13.8840,464
13.8860,1936
13.8880,1056
13.8900,464
13.8920,512
13.8940,864
13.8960,608
13.8980,1616
13.9000,1936
13.9020,2208
13.9040,2144
13.9060,880
13.9080,2064
13.9100,816
13.9120,640
13.9140,2128
13.9160,912
13.9180,656
13.9200,784
13.9220,368
13.9240,928
13.9260,1504
13.9280,976
13.9300,1168
13.9320,784
13.9340,800
13.9360,928
13.9380,976
13.9400,544
13.9420,944
13.9440,1360
13.9460,528
13.9480,688
13.9500,576
13.9520,4897
13.9540,5185
13.9560,688
13.9580,784
13.9600,512
13.9620,3328
13.9640,4000
13.9660,1472
13.9680,912
13.9700,784
13.9720,608
13.9740,848
13.9760,1216
13.9780,1248
13.9800,1200
13.9820,896
13.9840,832
13.9860,896
13.9880,832
13.9900,576
13.9920,640
13.9940,512
13.9960,816
13.9980,528
14.0000,1808
14.0020,1264
14.0040,672
14.0060,912
14.0080,464
14.0100,704
14.0120,480
14.0140,336
14.0160,800
14.0180,768
14.0200,1168
14.0220,1648
14.0240,1184
14.0260,1200
14.0280,768
14.0300,768
14.0320,672
14.0340,928
14.0360,400
14.0380,944
14.0400,640
14.0420,2272
14.0440,1344
14.0460,1360
14.0480,1280
14.0500,624
14.0520,1312
14.0540,800
14.0560,1200
14.0580,1488
14.0600,608
14.0620,544
14.0640,544
14.0660,1152
14.0680,272
14.0700,512
14.0720,1344
14.0740,624
14.0760,480
14.0780,5185
14.0800,480
14.0820,3072
14.0840,1104
14.0860,1040
14.0880,896
14.0900,1440
14.0920,1328
14.0940,896
14.0960,1184
14.0980,512
14.1000,688
14.1020,1344
14.1040,416
14.1060,2432
14.1080,464
14.1100,880
14.1120,256
14.1140,816
14.1160,608
14.1180,944
14.1200,704
14.1220,640
14.1240,1104
14.1260,1232
14.1280,688
14.1300,768
14.1320,1408
14.1340,640
14.1360,1888
14.1380,1072
14.1400,544
14.1420,288
14.1440,512
14.1460,752
14.1480,848
14.1500,288
14.1520,512
14.1540,560
14.1560,704
14.1580,304
14.1600,1120
14.1620,1824
14.1640,96
14.1660,800
14.1680,512
14.1700,784
14.1720,928
14.1740,2144
14.1760,480
14.1780,592
14.1800,784
14.1820,1200
14.1840,192
14.1860,976
14.1880,1552
14.1900,368
14.1920,1488
14.1940,1056
14.1960,8354
14.1980,1376
14.2000,928
14.2020,720
14.2040,848
14.2060,3152
14.2080,2736
14.2100,560
14.2120,1232
14.2140,768
14.2160,624
14.2180,704
14.2200,8177
14.2220,2048
14.2240,736
14.2260,4801
14.2280,3744
14.2300,1248
14.2320,576
14.2340,656
14.2360,656
14.2380,912
14.2400,240
14.2420,576
14.2440,960
14.2460,704
14.2480,720
14.2500,896
14.2520,592
14.2540,592
14.2560,576
14.2580,816
14.2600,480
14.2620,912
14.2640,288
14.2660,800
14.2680,2176
14.2700,1248
14.2720,1056
14.2740,464
14.2760,1280
14.2780,960
14.2800,800
14.2820,800
14.2840,288
14.2860,992
14.2880,400
14.2900,688
14.2920,1040
14.2940,1760
14.2960,816
14.2980,560
14.3000,944
14.3020,800
14.3040,768
14.3060,352
14.3080,2096
14.3100,896
14.3120,560
14.3140,752
14.3160,5009
14.3180,1536
14.3200,1168
14.3220,688
14.3240,1648
14.3260,704
14.3280,3728
14.3300,2080
14.3320,1024
14.3340,1056
14.3360,592
14.3380,944
14.3400,576
14.3420,816
14.3440,928
14.3460,816
14.3480,448
14.3500,1120
14.3520,896
14.3540,544
14.3560,1536
14.3580,2896
14.3600,2144
14.3620,320
14.3640,800
14.3660,864
14.3680,448
14.3700,432
14.3720,240
14.3740,1168
14.3760,656
14.3780,656
14.3800,688
14.3820,512
14.3840,528
14.3860,272
14.3880,1296
14.3900,2048
14.3920,1872
14.3940,2224
14.3960,1792
14.3980,1376
14.4000,768
14.4020,736
14.4040,576
14.4060,720
14.4080,1088
14.4100,608
14.4120,384
14.4140,736
14.4160,912
14.4180,640
14.4200,1072
14.4220,1376
14.4240,1936
14.4260,384
14.4280,704
14.4300,304
14.4320,976
14.4340,1312
14.4360,1808
14.4380,640
14.4400,576
14.4420,352
14.4440,6945
14.4460,3408
14.4480,784
14.4500,768
14.4520,512
14.4540,1232
14.4560,992
14.4580,752
14.4600,1488
14.4620,976
14.4640,736
14.4660,960
14.4680,816
14.4700,288
14.4720,416
14.4740,1280
14.4760,208
14.4780,1968
14.4800,800
14.4820,496
14.4840,704
14.4860,1424
14.4880,432
14.4900,2192
14.4920,976
14.4940,800
14.4960,1120
14.4980,4865
14.5000,1536
14.5020,1008
14.5040,848
14.5060,896
14.5080,800
14.5100,1168
14.5120,400
14.5140,608
14.5160,224
14.5180,1344
14.5200,3072
14.5220,608
14.5240,656
14.5260,720
14.5280,1744
14.5300,1056
14.5320,976
14.5340,912
14.5360,976
14.5380,816
14.5400,928
14.5420,864
14.5440,896
14.5460,896
14.5480,768
14.5500,880
14.5520,864
14.5540,1120
14.5560,400
14.5580,688
14.5600,2560
14.5620,3840
14.5640,1104
14.5660,3696
14.5680,3040
14.5700,1632
14.5720,1072
14.5740,400
14.5760,832
14.5780,768
14.5800,752
14.5820,144
14.5840,1488
14.5860,816
14.5880,768
14.5900,896
14.5920,1184
14.5940,2608
14.5960,2512
14.5980,720
14.6000,688
14.6020,1104
14.6040,624
14.6060,960
14.6080,1328
14.6100,912
14.6120,2400
14.6140,2304
14.6160,3040
14.6180,1424
14.6200,896
14.6220,656
14.6240,432
14.6260,1984
14.6280,1296
14.6300,784
14.6320,1040
14.6340,976
14.6360,240
14.6380,3792
14.6400,2000
14.6420,448
14.6440,560
14.6460,1616
14.6480,752
14.6500,1152
14.6520,800
14.6540,768
14.6560,1072
14.6580,1200
14.6600,1552
14.6620,912
14.6640,960
14.6660,704
14.6680,848
14.6700,784
14.6720,768
14.6740,1488
14.6760,912
14.6780,816
14.6800,592
14.6820,6977
14.6840,2128
14.6860,736
14.6880,608
14.6900,592
14.6920,704
14.6940,640
14.6960,896
14.6980,464
14.7000,2176
14.7020,912
14.7040,1680
14.7060,848
14.7080,1440
14.7100,464
14.7120,560
14.7140,448
14.7160,3216
14.7180,1168
14.7200,608
14.7220,352
14.7240,672
14.7260,816
14.7280,816
14.7300,5713
14.7320,656
14.7340,800
14.7360,576
14.7380,1040
14.7400,1456
14.7420,688
14.7440,1616
14.7460,416
14.7480,464
14.7500,320
14.7520,944
14.7540,736
14.7560,576
14.7580,544
14.7600,784
14.7620,544
14.7640,592
14.7660,1024
14.7680,1040
14.7700,544
14.7720,944
14.7740,608
14.7760,720
14.7780,3056
14.7800,1328
14.7820,784
14.7840,992
14.7860,848
14.7880,1040
14.7900,864
14.7920,1088
14.7940,1136
14.7960,416
14.7980,768
14.8000,1216
14.8020,1072
14.8040,496
14.8060,928
14.8080,448
14.8100,496
14.8120,512
14.8140,1088
14.8160,5537
14.8180,1376
14.8200,512
14.8220,656
14.8240,1504
14.8260,352
14.8280,1520
14.8300,512
14.8320,576
14.8340,688
14.8360,1024
14.8380,1440
14.8400,2256
14.8420,1664
14.8440,384
14.8460,352
14.8480,1120
14.8500,768
14.8520,848
14.8540,896
14.8560,3232
14.8580,1536
14.8600,1168
14.8620,784
14.8640,768
14.8660,4785
14.8680,1152
14.8700,864
14.8720,800
14.8740,1216
14.8760,1488
14.8780,256
14.8800,3616
14.8820,2272
14.8840,848
14.8860,912
14.8880,608
14.8900,592
14.8920,688
14.8940,864
14.8960,480
14.8980,704
14.9000,1712
14.9020,976
14.9040,1344
14.9060,400
14.9080,432
14.9100,1264
14.9120,784
14.9140,4481
14.9160,2000
14.9180,1520
14.9200,1344
14.9220,528
14.9240,1920
14.9260,9090
14.9280,5441
14.9300,1232
14.9320,656
14.9340,592
14.9360,864
14.9380,528
14.9400,1024
14.9420,608
14.9440,672
14.9460,2352
14.9480,688
14.9500,592
14.9520,608
14.9540,448
14.9560,560
14.9580,800
14.9600,1616
14.9620,768
14.9640,1264
14.9660,1040
14.9680,1136
14.9700,1440
14.9720,560
14.9740,992
14.9760,896
14.9780,736
14.9800,400
14.9820,688
14.9840,2944
14.9860,5169
14.9880,3536
14.9900,8722
14.9920,656
14.9940,432
14.9960,1232
14.9980,928
15.0000,576
15.0020,0
15.0040,1488
15.0060,784
15.0080,416
15.0100,1120
15.0120,1088
15.0140,1856
15.0160,528
15.0180,432
15.0200,1152
15.0220,896
15.0240,1216
15.0260,2112
15.0280,1152
15.0300,400
15.0320,720
15.0340,1280
15.0360,640
15.0380,10338
15.0400,17876
15.0420,976
15.0440,752
15.0460,592
15.0480,928
15.0500,576
15.0520,864
15.0540,800
15.0560,1056
15.0580,320
15.0600,768
15.0620,1056
15.0640,640
15.0660,768
15.0680,1072
15.0700,640
15.0720,1120
15.0740,656
15.0760,528
15.0780,288
15.0800,1232
15.0820,1584
15.0840,1296
15.0860,2064
15.0880,528
15.0900,352
15.0920,720
15.0940,576
15.0960,976
15.0980,2544
15.1000,3088
15.1020,784
15.1040,1584
15.1060,3984
15.1080,896
15.1100,400
15.1120,784
15.1140,4913
15.1160,2224
15.1180,1104
15.1200,944
15.1220,688
15.1240,736
15.1260,592
15.1280,704
15.1300,960
15.1320,2480
15.1340,1552
15.1360,736
15.1380,832
15.1400,400
15.1420,512
15.1440,720
15.1460,1568
15.1480,400
15.1500,976
15.1520,272
15.1540,4577
15.1560,6049
15.1580,800
15.1600,1424
15.1620,8770
15.1640,2096
15.1660,736
15.1680,448
15.1700,576
15.1720,1040
15.1740,464
15.1760,1056
15.1780,800
15.1800,864
15.1820,880
15.1840,1408
15.1860,864
15.1880,848
15.1900,608
15.1920,592
15.1940,720
15.1960,1168
15.1980,1984
15.2000,960
15.2020,512
15.2040,1344
15.2060,3072
15.2080,2048
15.2100,1184
15.2120,528
15.2140,640
15.2160,1040
15.2180,3888
15.2200,5937
15.2220,5457
15.2240,1424
15.2260,4417
15.2280,1568
15.2300,336
15.2320,1312
15.2340,528
15.2360,656
15.2380,1856
15.2400,1184
15.2420,720
15.2440,448
15.2460,544
15.2480,768
15.2500,848
15.2520,672
15.2540,464
15.2560,768
15.2580,960
15.2600,2192
15.2620,1872
15.2640,560
15.2660,560
15.2680,880
15.2700,1232
15.2720,1360
15.2740,368
15.2760,832
15.2780,4321
15.2800,784
15.2820,800
15.2840,864
15.2860,1040
15.2880,416
15.2900,848
15.2920,176
15.2940,784
15.2960,704
15.2980,752
15.3000,576
15.3020,1104
15.3040,656
15.3060,2944
15.3080,1824
15.3100,912
15.3120,688
15.3140,640
15.3160,1040
15.3180,672
15.3200,848
15.3220,800
15.3240,704
15.3260,1024
15.3280,352
15.3300,896
15.3320,1440
15.3340,544
15.3360,496
15.3380,736
15.3400,400
15.3420,656
15.3440,1088
15.3460,480
15.3480,512
15.3500,640
15.3520,800
15.3540,1168
15.3560,1488
15.3580,464
15.3600,1024
15.3620,816
15.3640,1248
15.3660,1088
15.3680,3808
15.3700,2112
15.3720,576
15.3740,528
15.3760,1200
15.3780,800
15.3800,480
15.3820,1120
15.3840,832
15.3860,784
15.3880,2048
15.3900,480
15.3920,720
15.3940,1056
15.3960,448
15.3980,800
15.4000,464
15.4020,544
15.4040,672
15.4060,1616
15.4080,1328
15.4100,416
15.4120,1072
15.4140,672
15.4160,2240
15.4180,5697
15.4200,528
15.4220,1408
15.4240,640
15.4260,864
15.4280,688
15.4300,2272
15.4320,736
15.4340,928
15.4360,880
15.4380,704
15.4400,688
15.4420,912
15.4440,1296
15.4460,800
15.4480,1376
15.4500,784
15.4520,576
15.4540,656
15.4560,672
15.4580,1312
15.4600,928
15.4620,688
15.4640,144
15.4660,720
15.4680,944
15.4700,1152
15.4720,1312
15.4740,960
15.4760,976
15.4780,496
15.4800,640
15.4820,656
15.4840,896
15.4860,1040
15.4880,656
15.4900,672
15.4920,1296
15.4940,848
15.4960,896
15.4980,848
15.5000,912
15.5020,432
15.5040,528
15.5060,672
15.5080,512
15.5100,560
15.5120,464
15.5140,896
15.5160,3584
15.5180,1232
15.5200,912
15.5220,896
15.5240,656
15.5260,544
15.5280,864
15.5300,784
15.5320,768
15.5340,4273
15.5360,5057
15.5380,928
15.5400,1040
15.5420,848
15.5440,864
15.5460,4753
15.5480,848
15.5500,1440
15.5520,1616
15.5540,5649
15.5560,3760
15.5580,912
15.5600,2576
15.5620,816
15.5640,944
15.5660,1216
15.5680,1632
15.5700,1200
15.5720,384
15.5740,576
15.5760,976
15.5780,560
15.5800,656
15.5820,1024
15.5840,1248
15.5860,1360
15.5880,656
15.5900,928
15.5920,1728
15.5940,640
15.5960,1504
15.5980,1440
15.6000,992
15.6020,1184
15.6040,944
15.6060,1056
15.6080,752
15.6100,560
15.6120,896
15.6140,640
15.6160,848
15.6180,1600
15.6200,1440
15.6220,848
15.6240,960
15.6260,1568
15.6280,3328
15.6300,3296
15.6320,544
15.6340,768
15.6360,480
15.6380,3872
15.6400,688
15.6420,5841
15.6440,1104
15.6460,816
15.6480,768
15.6500,1456
15.6520,944
15.6540,2736
15.6560,576
15.6580,8177
15.6600,3392
15.6620,512
15.6640,2656
15.6660,256
15.6680,640
15.6700,1744
15.6720,1440
15.6740,448
15.6760,656
15.6780,1680
15.6800,672
15.6820,1552
15.6840,912
15.6860,544
15.6880,768
15.6900,672
15.6920,1056
15.6940,640
15.6960,880
15.6980,768
15.7000,2064
15.7020,912
15.7040,688
15.7060,1040
15.7080,1376
15.7100,2080
15.7120,464
15.7140,832
15.7160,928
15.7180,2384
15.7200,3376
15.7220,2176
15.7240,1376
15.7260,2816
15.7280,2336
15.7300,480
15.7320,1824
15.7340,2352
15.7360,672
15.7380,2832
15.7400,400
15.7420,3920
15.7440,944
15.7460,1168
15.7480,896
15.7500,800
15.7520,608
15.7540,1088
15.7560,13251
15.7580,11074
15.7600,3008
15.7620,704
15.7640,2160
15.7660,1520
15.7680,576
15.7700,688
15.7720,3024
15.7740,1296
15.7760,1520
15.7780,688
15.7800,560
15.7820,1152
15.7840,1488
15.7860,512
15.7880,800
15.7900,432
15.7920,2384
15.7940,432
15.7960,656
15.7980,784
15.8000,608
15.8020,992
15.8040,2464
15.8060,800
15.8080,2624
15.8100,1424
15.8120,1200
15.8140,1056
15.8160,816
15.8180,1888
15.8200,3200
15.8220,608
15.8240,992
15.8260,2144
15.8280,3376
15.8300,768
15.8320,1424
15.8340,3136
15.8360,1088
15.8380,928
15.8400,1792
15.8420,832
15.8440,3552
15.8460,768
15.8480,1184
15.8500,720
15.8520,1008
15.8540,768
15.8560,848
15.8580,11026
15.8600,4881
15.8620,1200
15.8640,1072
15.8660,1088
15.8680,592
15.8700,816
15.8720,1920
15.8740,576
15.8760,576
15.8780,496
15.8800,608
15.8820,1024
15.8840,1360
15.8860,1248
15.8880,864
15.8900,672
15.8920,608
15.8940,976
15.8960,1104
15.8980,3712
15.9000,1648
15.9020,960
15.9040,704
15.9060,1120
15.9080,784
15.9100,1040
15.9120,1600
15.9140,864
15.9160,3152
15.9180,2256
15.9200,640
15.9220,1360
15.9240,1232
15.9260,816
15.9280,1056
15.9300,800
15.9320,2432
15.9340,2752
15.9360,672
15.9380,2096
15.9400,1248
15.9420,464
15.9440,1360
15.9460,2112
15.9480,1328
15.9500,5089
15.9520,448
15.9540,1728
15.9560,1984
15.9580,512
15.9600,864
15.9620,848
15.9640,5041
15.9660,2896
15.9680,2336
15.9700,1776
15.9720,2384
15.9740,1168
15.9760,4561
15.9780,1088
15.9800,576
15.9820,4433
15.9840,1312
15.9860,688
15.9880,1952
15.9900,928
15.9920,992
15.9940,944
15.9960,1616
15.9980,848
16.0000,832
16.0020,960
16.0040,832
16.0060,528
16.0080,1776
16.0100,8674
16.0120,1184
16.0140,736
16.0160,2336
16.0180,2048
16.0200,3088
16.0220,1216
16.0240,1408
16.0260,976
16.0280,1664
16.0300,736
16.0320,2000
16.0340,400
16.0360,1440
16.0380,4401
16.0400,4913
16.0420,816
16.0440,1616
16.0460,4609
16.0480,2688
16.0500,720
16.0520,1456
16.0540,736
16.0560,1232
16.0580,960
16.0600,656
16.0620,944
16.0640,4016
16.0660,1520
16.0680,1616
16.0700,2352
16.0720,1296
16.0740,5057
16.0760,10722
16.0780,3936
16.0800,1312
16.0820,2400
16.0840,1024
16.0860,736
16.0880,5281
16.0900,4401
16.0920,1360
16.0940,960
16.0960,4561
16.0980,640
16.1000,1536
16.1020,864
16.1040,2384
16.1060,2256
16.1080,3488
16.1100,10082
16.1120,752
16.1140,3168
16.1160,5969
16.1180,1728
16.1200,6849
16.1220,512
16.1240,5841
16.1260,6033
16.1280,1552
16.1300,5137
16.1320,992
16.1340,816
16.1360,5185
16.1380,944
16.1400,5905
16.1420,2512
16.1440,11234
16.1460,11874
16.1480,3280
16.1500,4753
16.1520,5409
16.1540,1216
16.1560,2496
16.1580,3072
16.1600,1920
16.1620,1696
16.1640,864
16.1660,1872
16.1680,4673
16.1700,960
16.1720,640
16.1740,5841
16.1760,1408
16.1780,1376
16.1800,4113
16.1820,2976
16.1840,8177
16.1860,11186
16.1880,11458
16.1900,592
16.1920,1232
16.1940,12883
16.1960,800
16.1980,3264
16.2000,1184
16.2020,7249
16.2040,1040
16.2060,8354
16.2080,1504
16.2100,8161
16.2120,10018
16.2140,5313
16.2160,2528
16.2180,992
16.2200,13635
16.2220,1232
16.2240,9266
16.2260,1376
16.2280,13379
16.2300,1568
16.2320,1744
16.2340,1072
16.2360,5361
16.2380,4064
16.2400,1792
16.2420,384
16.2440,5089
16.2460,28438
16.2480,4417
16.2500,2960
16.2520,1568
16.2540,14083
16.2560,1296
16.2580,2528
16.2600,7041
16.2620,3200
16.2640,8386
16.2660,8690
16.2680,3408
16.2700,21013
16.2720,28374
16.2740,9522
16.2760,9378
16.2780,5089
16.2800,12643
16.2820,8242
16.2840,1088
16.2860,20052
16.2880,3392
16.2900,912
16.2920,1968
16.2940,4016
16.2960,16500
16.2980,6881
16.3000,6945
16.3020,1280
16.3040,17860
16.3060,3344
16.3080,8177
16.3100,3040
16.3120,1424
16.3140,1440
16.3160,8450
16.3180,5025
16.3200,7505
16.3220,1440
16.3240,11906
16.3260,864
16.3280,3408
16.3300,1232
16.3320,10690
16.3340,22789
16.3360,3008
16.3380,1936
16.3400,1072
16.3420,9058
16.3440,2208
16.3460,3984
16.3480,992
16.3500,1456
16.3520,800
16.3540,1328
16.3560,4497
16.3580,9378
16.3600,1664
16.3620,2096
16.3640,1232
16.3660,6561
16.3680,6401
16.3700,2480
16.3720,1120
16.3740,12419
16.3760,736
16.3780,11298
16.3800,4177
16.3820,3712
16.3840,2576
16.3860,6225
16.3880,9074
16.3900,3424
16.3920,7105
16.3940,12691
16.3960,24437
16.3980,16163
16.4000,1024
16.4020,3008
16.4040,2064
16.4060,7041
16.4080,4257
16.4100,5553
16.4120,1328
16.4140,5665
16.4160,5921
16.4180,3024
16.4200,3216
16.4220,2960
16.4240,15747
16.4260,8834
16.4280,22117
16.4300,4161
16.4320,864
16.4340,3328
16.4360,13651
16.4380,3024
16.4400,1216
16.4420,3024
16.4440,1232
16.4460,976
16.4480,8177
16.4500,912
16.4520,15795
16.4540,5441
16.4560,544
16.4580,18356
16.4600,1568
16.4620,12963
16.4640,13827
16.4660,35016
16.4680,1152
16.4700,1536
16.4720,3040
16.4740,6961
16.4760,8802
16.4780,7569
16.4800,10466
16.4820,5073
16.4840,15299
16.4860,14883
16.4880,6577
16.4900,6545
16.4920,1904
16.4940,10386
16.4960,7217
16.4980,912
16.5000,17124
16.5020,19220
16.5040,11458
16.5060,11058
16.5080,11698
16.5100,3376
16.5120,16083
16.5140,10498
16.5160,2192
16.5180,2528
16.5200,2432
16.5220,1008
16.5240,1952
16.5260,4993
16.5280,9922
16.5300,7377
16.5320,7697
16.5340,9634
16.5360,3760
16.5380,25862
16.5400,11474
16.5420,944
16.5440,8161
16.5460,6321
16.5480,4689
16.5500,1376
16.5520,1872
16.5540,2384
16.5560,6145
16.5580,4193
16.5600,4369
16.5620,2992
16.5640,26646
16.5660,3792
16.5680,20997
16.5700,4833
16.5720,21461
16.5740,20356
16.5760,3008
16.5780,16339
16.5800,2736
16.5820,2576
16.5840,5153
16.5860,12226
16.5880,5249
16.5900,1216
16.5920,5153
16.5940,3728
16.5960,9682
16.5980,17124
16.6000,1472
16.6020,6385
16.6040,11538
16.6060,8610
16.6080,15539
16.6100,1152
16.6120,15011
16.6140,17700
16.6160,2384
16.6180,6625
16.6200,20517
16.6220,3392
16.6240,8738
16.6260,2256
16.6280,1456
16.6300,8177
16.6320,2736
16.6340,6929
16.6360,8994
16.6380,3552
16.6400,24037
16.6420,3728
16.6440,10178
16.6460,26150
16.6480,1248
16.6500,9890
16.6520,8001
16.6540,17428
16.6560,5345
16.6580,1040
16.6600,4449
16.6620,3968
16.6640,8866
16.6660,3312
16.6680,14435
16.6700,24646
16.6720,5585
16.6740,3792
16.6760,4193
16.6780,11074
16.6800,17444
16.6820,11570
16.6840,3424
16.6860,9602
16.6880,7665
16.6900,8642
16.6920,2016
16.6940,14787
16.6960,8482
16.6980,2800
16.7000,9298
16.7020,7825
16.7040,2480
16.7060,30615
16.7080,2176
16.7100,1408
16.7120,6049
16.7140,5409
16.7160,2016
16.7180,13379
16.7200,9714
16.7220,3632
16.7240,6017
16.7260,1184
16.7280,10914
16.7300,8898
16.7320,7713
16.7340,16820
16.7360,9698
16.7380,5569
16.7400,3040
16.7420,2096
16.7440,9026
16.7460,3344
16.7480,1648
16.7500,2176
16.7520,8722
16.7540,4561
16.7560,4048
16.7580,17876
16.7600,656
16.7620,11394
16.7640,8850
16.7660,3408
16.7680,4753
16.7700,12130
16.7720,3344
16.7740,5377
16.7760,928
16.7780,12739
16.7800,5585
16.7820,5089
16.7840,5185
16.7860,4689
16.7880,12931
16.7900,10450
16.7920,1328
16.7940,11330
16.7960,1344
16.7980,10274
16.8000,5201
16.8020,1120
16.8040,8129
16.8060,7345
16.8080,8754
16.8100,1664
16.8120,6705
16.8140,11010
16.8160,3712
16.8180,4753
16.8200,20789
16.8220,1248
16.8240,768
16.8260,864
16.8280,15891
16.8300,18948
16.8320,10946
16.8340,13651
16.8360,12130
16.8380,7649
16.8400,15811
16.8420,16740
16.8440,20116
16.8460,1280
16.8480,1696
16.8500,1520
16.8520,21653
16.8540,16868
16.8560,2192
16.8580,8706
16.8600,12162
16.8620,7905
16.8640,24565
16.8660,1424
16.8680,6049
16.8700,13635
16.8720,896
16.8740,10514
16.8760,1504
16.8780,20949
16.8800,6529
16.8820,8274
16.8840,3264
16.8860,5809
16.8880,720
16.8900,3536
16.8920,5985
16.8940,4048
16.8960,896
16.8980,15043
16.9000,1440
16.9020,8097
16.9040,12451
16.9060,13763
16.9080,2992
16.9100,8210
16.9120,12771
16.9140,24838
16.9160,1296
16.9180,2624
16.9200,18388
16.9220,2816
16.9240,23317
16.9260,4000
16.9280,2960
16.9300,7473
16.9320,6801
16.9340,7265
16.9360,13155
16.9380,4401
16.9400,1344
16.9420,1776
16.9440,16019
16.9460,5665
16.9480,9218
16.9500,1488
16.9520,640
16.9540,5297
16.9560,11970
16.9580,976
16.9600,7185
16.9620,4433
16.9640,1952
16.9660,11042
16.9680,20741
16.9700,3280
16.9720,7185
16.9740,10018
16.9760,17940
16.9780,10610
16.9800,1696
16.9820,16964
16.9840,11698
16.9860,21013
16.9880,7537
16.9900,1472
16.9920,4945
16.9940,960
16.9960,1488
16.9980,4225
17.0000,13219
17.0020,992
17.0040,15955
17.0060,2128
17.0080,1072
17.0100,2480
17.0120,9698
17.0140,17284
17.0160,4401
17.0180,6305
17.0200,8177
17.0220,6561
17.0240,3728
17.0260,5281
17.0280,8962
17.0300,6113
17.0320,1936
17.0340,1328
17.0360,9682
17.0380,2208
17.0400,3856
17.0420,1920
17.0440,1744
17.0460,6801
17.0480,12531
17.0500,2832
17.0520,9826
17.0540,1376
17.0560,8322
17.0580,30359
17.0600,1168
17.0620,9666
17.0640,2640
17.0660,3136
17.0680,1568
17.0700,23349
17.0720,11554
17.0740,2320
17.0760,12371
17.0780,21701
17.0800,10146
17.0820,10546
17.0840,2848
17.0860,8177
17.0880,1248
17.0900,4177
17.0920,8770
17.0940,2560
17.0960,24213
17.0980,22805
17.1000,5121
17.1020,7969
17.1040,7697
17.1060,2624
17.1080,36600
17.1100,10594
17.1120,4161
17.1140,2480
17.1160,14227
17.1180,5457
17.1200,1808
17.1220,9922
17.1240,1664
17.1260,13859
17.1280,6673
17.1300,8962
17.1320,3248
17.1340,5649
17.1360,8770
17.1380,14435
17.1400,10018
17.1420,9954
17.1440,21413
17.1460,16339
17.1480,9650
17.1500,26022
17.1520,34248
17.1540,32199
17.1560,2416
17.1580,3584
17.1600,12066
17.1620,3552
17.1640,5089
17.1660,592
17.1680,1536
17.1700,1616
17.1720,5313
17.1740,1104
17.1760,2208
17.1780,2080
17.1800,9986
17.1820,1344
17.1840,15523
17.1860,4401
17.1880,11090
17.1900,22997
17.1920,8274
17.1940,4129
17.1960,3920
17.1980,16195
17.2000,16484
17.2020,11362
17.2040,14723
17.2060,17028
17.2080,8033
17.2100,1744
17.2120,1024
17.2140,12339
17.2160,2736
17.2180,39593
17.2200,1536
17.2220,6529
17.2240,7713
17.2260,8194
17.2280,16099
17.2300,5937
17.2320,2272
17.2340,4689
17.2360,3472
17.2380,26038
17.2400,8177
17.2420,4064
17.2440,13779
17.2460,14595
17.2480,10722
17.2500,18356
17.2520,5121
17.2540,3008
17.2560,2752
17.2580,22213
17.2600,12499
17.2620,5089
17.2640,22341
17.2660,7681
17.2680,9346
17.2700,11474
17.2720,7313
17.2740,1760
17.2760,23333
17.2780,2192
17.2800,2992
17.2820,2816
17.2840,992
17.2860,10690
17.2880,19796
17.2900,9410
17.2920,4833
17.2940,688
17.2960,5553
17.2980,5665
17.3000,1088
17.3020,5057
17.3040,5793
17.3060,10818
17.3080,8882
17.3100,784
17.3120,1440
17.3140,2048
17.3160,10242
17.3180,4513
17.3200,1584
17.3220,8177
17.3240,3168
17.3260,10994
17.3280,5665
17.3300,1360
17.3320,2704
17.3340,1808
17.3360,9458
17.3380,9810
17.3400,1664
17.3420,27222
17.3440,26454
17.3460,10850
17.3480,11138
17.3500,1264
17.3520,6785
17.3540,3840
17.3560,2400
17.3580,1376
17.3600,1136
17.3620,2688
17.3640,688
17.3660,3680
17.3680,15603
17.3700,4705
17.3720,8466
17.3740,18548
17.3760,10242
17.3780,1056
17.3800,1360
17.3820,23013
17.3840,1792
17.3860,2064
17.3880,1072
17.3900,7649
17.3920,10242
17.3940,8498
17.3960,5409
17.3980,2208
17.4000,19524
17.4020,1120
17.4040,1152
17.4060,5601
17.4080,25686
17.4100,27158
17.4120,9266
17.4140,6913
17.4160,1616
17.4180,5537
17.4200,4225
17.4220,6625
17.4240,14643
17.4260,1552
17.4280,1216
17.4300,2304
17.4320,16275
17.4340,2240
17.4360,656
17.4380,7265
17.4400,6657
17.4420,16916
17.4440,7857
17.4460,3632
17.4480,2528
17.4500,3264
17.4520,6561
17.4540,5249
17.4560,1712
17.4580,5601
17.4600,8322
17.4620,7921
17.4640,8402
17.4660,21973
17.4680,11538
17.4700,2496
17.4720,13027
17.4740,4705
17.4760,7297
17.4780,1344
17.4800,2224
17.4820,25286
17.4840,13363
17.4860,18708
17.4880,6977
17.4900,17588
17.4920,6193
17.4940,8113
17.4960,3152
17.4980,8578
17.5000,1024
17.5020,16532
17.5040,2368
17.5060,19972
17.5080,18148
17.5100,5217
17.5120,1328
17.5140,12867
17.5160,13267
17.5180,3360
17.5200,22021
17.5220,1184
17.5240,14003
17.5260,3872
17.5280,1616
17.5300,2880
17.5320,912
17.5340,17492
17.5360,1120
17.5380,15251
17.5400,28246
17.5420,12162
17.5440,1040
17.5460,1232
17.5480,4689
17.5500,1840
17.5520,2784
17.5540,6145
17.5560,3760
17.5580,832
17.5600,1344
17.5620,2944
17.5640,4897
17.5660,8242
17.5680,9362
17.5700,5585
17.5720,1456
17.5740,3616
17.5760,992
17.5780,4417
17.5800,3056
17.5820,1280
17.5840,8754
17.5860,7553
17.5880,1104
17.5900,816
17.5920,4321
17.5940,16980
17.5960,1424
17.5980,2976
17.6000,14355
17.6020,13763
17.6040,1184
17.6060,4833
17.6080,15331
17.6100,14691
17.6120,16083
17.6140,1968
17.6160,8097
17.6180,2832
17.6200,10162
17.6220,9698
17.6240,9218
17.6260,1840
17.6280,12771
17.6300,2192
17.6320,2112
17.6340,4609
17.6360,15715
17.6380,17860
17.6400,10130
17.6420,1504
17.6440,4449
17.6460,4625
17.6480,9474
17.6500,19908
17.6520,1168
17.6540,6833
17.6560,2128
17.6580,8754
17.6600,3840
17.6620,4353
17.6640,1312
17.6660,13907
17.6680,2080
17.6700,5249
17.6720,6481
17.6740,3840
17.6760,4641
17.6780,1440
17.6800,6689
17.6820,10562
17.6840,7681
17.6860,2656
17.6880,16131
17.6900,6833
17.6920,27574
17.6940,10258
17.6960,9938
17.6980,5697
17.7000,3744
17.7020,1232
17.7040,17124
17.7060,18788
17.7080,5329
17.7100,23637
17.7120,2864
17.7140,3792
17.7160,2720
17.7180,8450
17.7200,1584
17.7220,1072
17.7240,11202
17.7260,3424
17.7280,1424
17.7300,8177
17.7320,3888
17.7340,8242
17.7360,8450
17.7380,12274
17.7400,2512
17.7420,672
17.7440,1808
17.7460,10690
17.7480,25494
17.7500,6353
17.7520,10066
17.7540,14483
17.7560,6977
17.7580,7985
17.7600,25974
17.7620,21973
17.7640,1280
17.7660,5825
17.7680,7985
17.7700,12162
17.7720,1424
17.7740,6545
17.7760,4753
17.7780,9730
17.7800,3408
17.7820,16788
17.7840,13779
17.7860,1200
17.7880,14499
17.7900,20372
17.7920,4465
17.7940,912
17.7960,6769
17.7980,7569
17.8000,20757
17.8020,2336
17.8040,1056
17.8060,11730
17.8080,5633
17.8100,9394
17.8120,896
17.8140,5793
17.8160,18228
17.8180,3776
17.8200,3968
17.8220,11938
17.8240,6097
17.8260,2336
17.8280,15379
17.8300,2512
17.8320,14355
17.8340,14259
17.8360,9298
17.8380,5729
17.8400,1856
17.8420,992
17.8440,16996
17.8460,11378
17.8480,1824
17.8500,1616
17.8520,17140
17.8540,24357
17.8560,656
17.8580,1616
17.8600,8129
17.8620,5057
17.8640,832
17.8660,4305
17.8680,17188
17.8700,2656
17.8720,28054
17.8740,14179
17.8760,25174
17.8780,8978
17.8800,3456
17.8820,24325
17.8840,8177
17.8860,4064
17.8880,4993
17.8900,12627
17.8920,1968
17.8940,944
17.8960,8097
17.8980,12451
17.9000,7441
17.9020,1632
17.9040,7105
17.9060,1728
17.9080,4897
17.9100,8450
17.9120,5825
17.9140,2480
17.9160,3648
17.9180,7425
17.9200,4993
17.9220,1216
17.9240,864
17.9260,10818
17.9280,1216
17.9300,1376
17.9320,1424
17.9340,14035
17.9360,8145
17.9380,3888
17.9400,12947
17.9420,27622
17.9440,2496
17.9460,688
17.9480,7633
17.9500,17300
17.9520,1056
17.9540,2736
17.9560,10882
17.9580,2832
17.9600,1360
17.9620,17220
17.9640,3792
17.9660,23317
17.9680,1152
17.9700,6497
17.9720,816
17.9740,9874
17.9760,6945
17.9780,3840
17.9800,12883
17.9820,2208
17.9840,1280
17.9860,7505
17.9880,3104
17.9900,11314
17.9920,1072
17.9940,13123
17.9960,4161
17.9980,1424
18.0000,8530
18.0020,3008
18.0040,1504
18.0060,21413
18.0080,2816
18.0100,14883
18.0120,19012
18.0140,7889
18.0160,5313
18.0180,9954
18.0200,12419
18.0220,17380
18.0240,1264
18.0260,5393
18.0280,1632
18.0300,1728
18.0320,3632
18.0340,2544
18.0360,672
18.0380,1280
18.0400,10386
18.0420,1152
18.0440,7377
18.0460,7505
18.0480,23301
18.0500,6561
18.0520,13587
18.0540,7793
18.0560,4513
18.0580,2112
18.0600,1888
18.0620,8242
18.0640,1744
18.0660,6929
18.0680,5553
18.0700,15235
18.0720,13203
18.0740,7345
18.0760,28630
18.0780,23701
18.0800,1968
18.0820,10130
18.0840,19924
18.0860,672
18.0880,17332
18.0900,4080
18.0920,1104
18.0940,640
18.0960,5089
18.0980,1184
18.1000,7985
18.1020,10818
18.1040,3216
18.1060,2000
18.1080,1056
18.1100,2656
18.1120,1040
18.1140,7313
18.1160,3616
18.1180,16436
18.1200,1840
18.1220,960
18.1240,13731
18.1260,1056
18.1280,4705
18.1300,5889
18.1320,24565
18.1340,1472
18.1360,1152
18.1380,19204
18.1400,4209
18.1420,10258
18.1440,3248
18.1460,1680
18.1480,5969
18.1500,9874
18.1520,17444
18.1540,3904
18.1560,2704
18.1580,14819
18.1600,12242
18.1620,15347
18.1640,5025
18.1660,992
18.1680,9154
18.1700,4913
18.1720,2448
18.1740,9154
18.1760,8402
18.1780,10722
18.1800,5121
18.1820,640
18.1840,13315
18.1860,928
18.1880,992
18.1900,1616
18.1920,13491
18.1940,288
18.1960,8802
18.1980,2400
18.2000,1808
18.2020,2864
18.2040,6657
18.2060,992
18.2080,3040
18.2100,16259
18.2120,10466
18.2140,3728
18.2160,1168
18.2180,5921
18.2200,8850
18.2220,5649
18.2240,1152
18.2260,5985
18.2280,3504
18.2300,6833
18.2320,7505
18.2340,11874
18.2360,1056
18.2380,15891
18.2400,21941
18.2420,4641
18.2440,3520
18.2460,992
18.2480,1488
18.2500,976
18.2520,16692
18.2540,11618
18.2560,1552
18.2580,2928
18.2600,2528
18.2620,1088
18.2640,7569
18.2660,3744
18.2680,4064
18.2700,14787
18.2720,11810
18.2740,2112
18.2760,848
18.2780,7393
18.2800,960
18.2820,12579
18.2840,1024
18.2860,5233
18.2880,8177
18.2900,15187
18.2920,2944
18.2940,18660
18.2960,2320
18.2980,1344
18.3000,976
18.3020,17060
18.3040,8770
18.3060,2592
18.3080,2256
18.3100,10034
18.3120,1472
18.3140,3312
18.3160,1088
18.3180,2000
18.3200,3136
18.3220,8978
18.3240,4321
18.3260,8418
18.3280,4737
18.3300,3264
18.3320,4273
18.3340,2608
18.3360,1184
18.3380,14019
18.3400,3392
18.3420,1008
18.3440,20308
18.3460,5265
18.3480,976
18.3500,1600
18.3520,3584
18.3540,8017
18.3560,1088
18.3580,4257
18.3600,8754
18.3620,1792
18.3640,8930
18.3660,3600
18.3680,1664
18.3700,5073
18.3720,2096
18.3740,1328
18.3760,896
18.3780,2912
18.3800,8177
18.3820,19876
18.3840,11202
18.3860,3728
18.3880,6065
18.3900,7601
18.3920,2480
18.3940,1616
18.3960,8978
18.3980,6145
18.4000,4000
18.4020,5985
18.4040,992
18.4060,4609
18.4080,3792
18.4100,2240
18.4120,2880
18.4140,864
18.4160,3504
18.4180,816
18.4200,6481
18.4220,15843
18.4240,4305
18.4260,7585
18.4280,6065
18.4300,10258
18.4320,6017
18.4340,4529
18.4360,10434
18.4380,944
18.4400,3296
18.4420,6145
18.4440,2048
18.4460,3488
18.4480,1408
18.4500,5969
18.4520,1760
18.4540,10002
18.4560,1120
18.4580,1456
18.4600,1152
18.4620,1792
18.4640,2528
18.4660,1488
18.4680,3344
18.4700,6577
18.4720,656
18.4740,2528
18.4760,7953
18.4780,12371
18.4800,12258
18.4820,10434
18.4840,6433
18.4860,1632
18.4880,1280
18.4900,2480
18.4920,11282
18.4940,5313
18.4960,5153
18.4980,2192
18.5000,992
18.5020,944
18.5040,6177
18.5060,1472
18.5080,3264
18.5100,4625
18.5120,6273
18.5140,6625
18.5160,1488
18.5180,8914
18.5200,592
18.5220,2176
18.5240,1520
18.5260,1056
18.5280,8738
18.5300,6929
18.5320,2352
18.5340,3536
18.5360,1456
18.5380,2592
18.5400,15667
18.5420,5729
18.5440,18468
18.5460,1056
18.5480,12082
18.5500,3936
18.5520,4673
18.5540,12307
18.5560,6913
18.5580,656
18.5600,4529
18.5620,10530
18.5640,1280
18.5660,6737
18.5680,1216
18.5700,2736
18.5720,7553
18.5740,1360
18.5760,2976
18.5780,5105
18.5800,1056
18.5820,1200
18.5840,2048
18.5860,4289
18.5880,7041
18.5900,11954
18.5920,20276
18.5940,5889
18.5960,10834
18.5980,1936
18.6000,7009
18.6020,1664
18.6040,576
18.6060,3888
18.6080,1632
18.6100,800
18.6120,1184
18.6140,6481
18.6160,13635
18.6180,6481
18.6200,8962
18.6220,6209
18.6240,5329
18.6260,2560
18.6280,2224
18.6300,3728
18.6320,2336
18.6340,3232
18.6360,720
18.6380,2864
18.6400,12034
18.6420,9186
18.6440,8145
18.6460,9650
18.6480,10530
18.6500,2080
18.6520,976
18.6540,944
18.6560,4737
18.6580,3632
18.6600,5329
18.6620,12755
18.6640,1136
18.6660,2720
18.6680,3360
18.6700,5937
18.6720,1168
18.6740,7921
18.6760,1808
18.6780,1376
18.6800,18324
18.6820,1232
18.6840,1728
18.6860,7425
18.6880,1264
18.6900,1872
18.6920,5265
18.6940,12627
18.6960,7713
18.6980,6241
18.7000,8738
18.7020,2576
18.7040,1344
18.7060,3328
18.7080,2560
18.7100,11618
18.7120,11138
18.7140,1168
18.7160,13699
18.7180,4080
18.7200,2096
18.7220,1152
18.7240,1344
18.7260,1312
18.7280,13379
18.7300,864
18.7320,640
18.7340,10194
18.7360,7121
18.7380,3584
18.7400,10834
18.7420,13635
18.7440,1616
18.7460,6417
18.7480,12242
18.7500,768
18.7520,9042
18.7540,2016
18.7560,3120
18.7580,11394
18.7600,784
18.7620,1744
18.7640,4913
18.7660,1120
18.7680,592
18.7700,1152
18.7720,1792
18.7740,2320
18.7760,20949
18.7780,6881
18.7800,2096
18.7820,640
18.7840,2912
18.7860,1232
18.7880,544
18.7900,1760
18.7920,960
18.7940,6529
18.7960,1280
18.7980,2816
18.8000,12210
18.8020,3584
18.8040,4385
18.8060,5793
18.8080,2800
18.8100,3360
18.8120,1840
18.8140,1552
18.8160,5937
18.8180,736
18.8200,736
18.8220,9714
18.8240,1840
18.8260,5889
18.8280,5089
18.8300,1344
18.8320,6353
18.8340,3840
18.8360,3616
18.8380,768
18.8400,4161
18.8420,1824
18.8440,1664
18.8460,15923
18.8480,9890
18.8500,23317
18.8520,6017
18.8540,2224
18.8560,4657
18.8580,6881
18.8600,1536
18.8620,1536
18.8640,7265
18.8660,1408
18.8680,1712
18.8700,1680
18.8720,608
18.8740,1968
18.8760,2496
18.8780,4177
18.8800,1152
18.8820,736
18.8840,1632
18.8860,1248
18.8880,1536
18.8900,944
18.8920,7505
18.8940,640
18.8960,3520
18.8980,13731
18.9000,4673
18.9020,11874
18.9040,10466
18.9060,1088
18.9080,9474
18.9100,6849
18.9120,6945
18.9140,5281
18.9160,7905
18.9180,1888
18.9200,944
18.9220,14275
18.9240,3888
18.9260,13475
18.9280,720
18.9300,1280
18.9320,6545
18.9340,1936
18.9360,9858
18.9380,11714
18.9400,5681
18.9420,944
18.9440,896
18.9460,1152
18.9480,3120
18.9500,1408
18.9520,912
18.9540,2672
18.9560,976
18.9580,9810
18.9600,1680
18.9620,992
18.9640,3504
18.9660,13971
18.9680,2368
18.9700,9426
18.9720,3296
18.9740,12403
18.9760,1296
18.9780,6785
18.9800,15875
18.9820,14307
18.9840,12483
18.9860,1456
18.9880,3168
18.9900,1168
18.9920,6049
18.9940,1504
18.9960,8482
18.9980,17156
19.0000,15251
19.0020,5329
19.0040,1728
19.0060,1424
19.0080,1328
19.0100,944
19.0120,1728
19.0140,2288
19.0160,4353
19.0180,6017
19.0200,1952
19.0220,1552
19.0240,1056
19.0260,2176
19.0280,3360
19.0300,2048
19.0320,1296
19.0340,2096
19.0360,7169
19.0380,11250
19.0400,4273
19.0420,9570
19.0440,3856
19.0460,1184
19.0480,2640
19.0500,9730
19.0520,1104
19.0540,16
19.0560,1360
19.0580,7489
19.0600,4625
19.0620,3792
19.0640,3840
19.0660,4353
19.0680,3120
19.0700,17156
19.0720,8754
19.0740,3664
19.0760,6673
19.0780,992
19.0800,4113
19.0820,8177
19.0840,1408
19.0860,3232
19.0880,1312
19.0900,832
19.0920,11458
19.0940,2608
19.0960,5729
19.0980,1552
19.1000,7313
19.1020,800
19.1040,10258
19.1060,1104
19.1080,832
19.1100,1376
19.1120,9730
19.1140,8177
19.1160,4064
19.1180,2976
19.1200,12819
19.1220,784
19.1240,17572
19.1260,1296
19.1280,5265
19.1300,2224
19.1320,8834
19.1340,5473
19.1360,704
19.1380,960
19.1400,1824
19.1420,2208
19.1440,2320
19.1460,11474
19.1480,1120
19.1500,6417
19.1520,8226
19.1540,8658
19.1560,11442
19.1580,7809
19.1600,7969
19.1620,2224
19.1640,8226
19.1660,4401
19.1680,6801
19.1700,13251
19.1720,3152
19.1740,9474
19.1760,832
19.1780,5953
19.1800,8370
19.1820,12579
19.1840,4929
19.1860,2704
19.1880,3520
19.1900,912
19.1920,1440
19.1940,1088
19.1960,6241
19.1980,4913
19.2000,1344
19.2020,9650
19.2040,1712
19.2060,688
19.2080,9826
19.2100,2480
19.2120,960
19.2140,1776
19.2160,10786
19.2180,8610
19.2200,10898
19.2220,4913
19.2240,3232
19.2260,17588
19.2280,5953
19.2300,5201
19.2320,1504
19.2340,4705
19.2360,10946
19.2380,5153
19.2400,2336
19.2420,1312
19.2440,9026
19.2460,1536
19.2480,6033
19.2500,1344
19.2520,5601
19.2540,1424
19.2560,1040
19.2580,10962
19.2600,21157
19.2620,3392
19.2640,13235
19.2660,4161
19.2680,1312
19.2700,1296
19.2720,1680
19.2740,13251
19.2760,5825
19.2780,720
19.2800,1584
19.2820,2640
19.2840,1072
19.2860,2560
19.2880,4016
19.2900,1792
19.2920,1712
19.2940,2000
19.2960,5073
19.2980,10386
19.3000,8850
19.3020,928
19.3040,9042
19.3060,5409
19.3080,3232
19.3100,3136
19.3120,15267
19.3140,2080
19.3160,7985
19.3180,1984
19.3200,25046
19.3220,944
19.3240,912
19.3260,1232
19.3280,2848
19.3300,7841
19.3320,12339
19.3340,1776
19.3360,1088
19.3380,25206
19.3400,3136
19.3420,12547
19.3440,720
19.3460,704
19.3480,4032
19.3500,11394
19.3520,5713
19.3540,3712
19.3560,1952
19.3580,2544
19.3600,1456
19.3620,17604
19.3640,11714
19.3660,11170
19.3680,3568
19.3700,14691
19.3720,4353
19.3740,1264
19.3760,5649
19.3780,1584
19.3800,3952
19.3820,960
19.3840,7009
19.3860,1504
19.3880,3600
19.3900,6033
19.3920,4497
19.3940,6289
19.3960,1264
19.3980,2736
19.4000,928
19.4020,4257
19.4040,496
19.4060,10514
19.4080,2496
19.4100,5697
19.4120,11874
19.4140,21557
19.4160,11362
19.4180,1472
19.4200,1440
19.4220,9026
19.4240,11362
19.4260,2368
19.4280,4369
19.4300,928
19.4320,1936
19.4340,848
19.4360,7361
19.4380,8930
19.4400,4737
19.4420,1232
19.4440,3072
19.4460,4897
19.4480,4321
19.4500,8242
19.4520,14099
19.4540,3472
19.4560,4193
19.4580,1200
19.4600,17140
19.4620,2192
19.4640,2512
19.4660,3904
19.4680,992
19.4700,13651
19.4720,8145
19.4740,13315
19.4760,5377
19.4780,2112
19.4800,1536
19.4820,9986
19.4840,8530
19.4860,4657
19.4880,3792
19.4900,1488
19.4920,976
19.4940,12355
19.4960,1552
19.4980,14275
19.5000,2064
19.5020,5921
19.5040,1952
19.5060,1456
19.5080,2192
19.5100,4273
19.5120,17172
19.5140,688
19.5160,9090
19.5180,2464
19.5200,2304
19.5220,11490
19.5240,1616
19.5260,7633
19.5280,1184
19.5300,1152
19.5320,8962
19.5340,4353
19.5360,4064
19.5380,912
19.5400,2080
19.5420,19700
19.5440,16964
19.5460,4241
19.5480,1568
19.5500,6897
19.5520,1296
19.5540,944
19.5560,2752
19.5580,1312
19.5600,3168
19.5620,1344
19.5640,1120
19.5660,1984
19.5680,1184
19.5700,1312
19.5720,2176
19.5740,1104
19.5760,1456
19.5780,24966
19.5800,1280
19.5820,1792
19.5840,2080
19.5860,7409
19.5880,1200
19.5900,976
19.5920,14243
19.5940,2304
19.5960,8690
19.5980,1088
19.6000,2144
19.6020,2432
19.6040,9442
19.6060,2208
19.6080,1312
19.6100,2368
19.6120,2448
19.6140,6225
19.6160,1104
19.6180,4849
19.6200,2736
19.6220,4737
19.6240,5409
19.6260,7089
19.6280,13475
19.6300,8386
19.6320,1552
19.6340,8177
19.6360,9922
19.6380,5297
19.6400,3840
19.6420,1760
19.6440,1552
19.6460,816
19.6480,1552
19.6500,11458
19.6520,6833
19.6540,7009
19.6560,1136
19.6580,1088
19.6600,5089
19.6620,8818
19.6640,5761
19.6660,3360
19.6680,464
19.6700,1376
19.6720,3040
19.6740,15699
19.6760,592
19.6780,1104
19.6800,6705
19.6820,5905
19.6840,944
19.6860,10850
19.6880,3456
19.6900,1248
19.6920,1440
19.6940,5153
19.6960,7617
19.6980,1200
19.7000,2464
19.7020,1040
19.7040,7873
19.7060,4321
19.7080,6193
19.7100,1424
19.7120,5473
19.7140,736
19.7160,768
19.7180,3712
19.7200,5841
19.7220,2192
19.7240,4417
19.7260,6289
19.7280,2624
19.7300,8770
19.7320,1376
19.7340,20517
19.7360,7249
19.7380,2096
19.7400,640
19.7420,20420
19.7440,3472
19.7460,8466
19.7480,1024
19.7500,1696
19.7520,21061
19.7540,2848
19.7560,3760
19.7580,5377
19.7600,2672
19.7620,7889
19.7640,2320
19.7660,1056
19.7680,8290
19.7700,2048
19.7720,1120
19.7740,1344
19.7760,4609
19.7780,18036
19.7800,1040
19.7820,2064
19.7840,5457
19.7860,2976
19.7880,2224
19.7900,7137
19.7920,8177
19.7940,10562
19.7960,15715
19.7980,7505
19.8000,12339
19.8020,8177
19.8040,1568
19.8060,1920
19.8080,976
19.8100,1152
19.8120,2496
19.8140,6385
19.8160,13315
19.8180,1072
