Tempo(s),EMG_Value
0.0000,1328
0.0020,2096
0.0040,1120
0.0060,1232
0.0080,2000
0.0100,1264
0.0120,1216
0.0140,928
0.0160,1680
0.0180,928
0.0200,1632
0.0220,1344
0.0240,1728
0.0260,1792
0.0280,960
0.0300,1120
0.0320,976
0.0340,1376
0.0360,1088
0.0380,1264
0.0400,2272
0.0420,2192
0.0440,1024
0.0460,1184
0.0480,1264
0.0500,1024
0.0520,1408
0.0540,1200
0.0560,1440
0.0580,1344
0.0600,1280
0.0620,1744
0.0640,944
0.0660,1120
0.0680,1040
0.0700,1376
0.0720,1536
0.0740,912
0.0760,1104
0.0780,1616
0.0800,1072
0.0820,944
0.0840,1744
0.0860,1488
0.0880,1568
0.0900,1184
0.0920,1296
0.0940,1088
0.0960,1216
0.0980,1328
0.1000,1424
0.1020,1616
0.1040,1232
0.1060,1152
0.1080,1616
0.1100,1184
0.1120,1552
0.1140,1616
0.1160,1040
0.1180,1360
0.1200,1424
0.1220,1104
0.1240,1728
0.1260,1456
0.1280,1280
0.1300,1952
0.1320,1296
0.1340,1344
0.1360,1120
0.1380,992
0.1400,1600
0.1420,1968
0.1440,1520
0.1460,1328
0.1480,1152
0.1500,1056
0.1520,1520
0.1540,1376
0.1560,928
0.1580,1776
0.1600,1056
0.1620,1024
0.1640,1024
0.1660,1168
0.1680,1328
0.1700,1872
0.1720,1360
0.1740,1248
0.1760,1392
0.1780,1264
0.1800,816
0.1820,1008
0.1840,1520
0.1860,1088
0.1880,1472
0.1900,976
0.1920,1584
0.1940,1248
0.1960,1072
0.1980,976
0.2000,976
0.2020,1184
0.2040,1312
0.2060,1264
0.2080,1856
0.2100,1168
0.2120,912
0.2140,1088
0.2160,1024
0.2180,1632
0.2200,1280
0.2220,1344
0.2240,1600
0.2260,2128
0.2280,1232
0.2300,1120
0.2320,1184
0.2340,1024
0.2360,1184
0.2380,864
0.2400,1504
0.2420,1872
0.2440,976
0.2460,1328
0.2480,1184
0.2500,944
0.2520,1072
0.2540,1136
0.2560,2144
0.2580,1312
0.2600,1488
0.2620,896
0.2640,1808
0.2660,1232
0.2680,800
0.2700,1440
0.2720,1680
0.2740,1040
0.2760,2528
0.2780,1120
0.2800,992
0.2820,1088
0.2840,896
0.2860,1168
0.2880,1104
0.2900,1120
0.2920,2976
0.2940,1056
0.2960,1520
0.2980,944
0.3000,1424
0.3020,1008
0.3040,1712
0.3060,1056
0.3080,1744
0.3100,1504
0.3120,1152
0.3140,1088
0.3160,1200
0.3180,1088
0.3200,1616
0.3220,1296
0.3240,1472
0.3260,1344
0.3280,1216
0.3300,1488
0.3320,944
0.3340,1232
0.3360,1248
0.3380,2192
0.3400,1056
0.3420,1472
0.3440,1056
0.3460,752
0.3480,976
0.3500,928
0.3520,1056
0.3540,1200
0.3560,1296
0.3580,1456
0.3600,1984
0.3620,1120
0.3640,992
0.3660,912
0.3680,1344
0.3700,1088
0.3720,1312
0.3740,1808
0.3760,1856
0.3780,1392
0.3800,1168
0.3820,944
0.3840,1040
0.3860,1824
0.3880,1392
0.3900,1312
0.3920,1664
0.3940,1296
0.3960,1488
0.3980,896
0.4000,976
0.4020,1536
0.4040,1120
0.4060,1424
0.4080,1184
0.4100,1088
0.4120,1376
0.4140,1216
0.4160,1296
0.4180,1040
0.4200,1184
0.4220,864
0.4240,1776
0.4260,1088
0.4280,1360
0.4300,1184
0.4320,1200
0.4340,1168
0.4360,944
0.4380,1280
0.4400,1152
0.4420,1664
0.4440,1184
0.4460,992
0.4480,1056
0.4500,1168
0.4520,1200
0.4540,1024
0.4560,1680
0.4580,1088
0.4600,1152
0.4620,1360
0.4640,976
0.4660,1088
0.4680,1104
0.4700,1248
0.4720,1072
0.4740,2000
0.4760,1472
0.4780,976
0.4800,960
0.4820,1104
0.4840,1696
0.4860,1056
0.4880,1152
0.4900,1216
0.4920,1424
0.4940,1104
0.4960,1072
0.4980,1232
0.5000,1040
0.5020,1248
0.5040,1376
0.5060,1376
0.5080,1328
0.5100,1360
0.5120,1152
0.5140,1088
0.5160,2000
0.5180,1104
0.5200,1904
0.5220,1872
0.5240,1616
0.5260,1584
0.5280,1056
0.5300,1104
0.5320,960
0.5340,1152
0.5360,992
0.5380,1216
0.5400,1152
0.5420,1360
0.5440,1392
0.5460,1360
0.5480,1296
0.5500,1248
0.5520,1344
0.5540,1232
0.5560,960
0.5580,1424
0.5600,1120
0.5620,1136
0.5640,1328
0.5660,1104
0.5680,1936
0.5700,1168
0.5720,1136
0.5740,1216
0.5760,1584
0.5780,864
0.5800,1248
0.5820,960
0.5840,1376
0.5860,1232
0.5880,1440
0.5900,1296
0.5920,1024
0.5940,1024
0.5960,1456
0.5980,1424
0.6000,1184
0.6020,1248
0.6040,1376
0.6060,960
0.6080,1856
0.6100,1520
0.6120,1072
0.6140,1104
0.6160,976
0.6180,1456
0.6200,1328
0.6220,1104
0.6240,1472
0.6260,1712
0.6280,1232
0.6300,1152
0.6320,640
0.6340,1328
0.6360,1456
0.6380,1104
0.6400,1280
0.6420,1072
0.6440,1856
0.6460,1456
0.6480,928
0.6500,1232
0.6520,1248
0.6540,1424
0.6560,1456
0.6580,1456
0.6600,1168
0.6620,1008
0.6640,1024
0.6660,1056
0.6680,1088
0.6700,1280
0.6720,1152
0.6740,1328
0.6760,1600
0.6780,1040
0.6800,832
0.6820,1120
0.6840,1296
0.6860,1056
0.6880,2672
0.6900,1776
0.6920,1328
0.6940,1248
0.6960,1216
0.6980,1296
0.7000,1376
0.7020,1536
0.7040,1792
0.7060,1664
0.7080,960
0.7100,1232
0.7120,1216
0.7140,1520
0.7160,1328
0.7180,1328
0.7200,1184
0.7220,1520
0.7240,1600
0.7260,1088
0.7280,1216
0.7300,1168
0.7320,1552
0.7340,1632
0.7360,960
0.7380,1136
0.7400,1344
0.7420,1504
0.7440,2000
0.7460,1168
0.7480,1120
0.7500,896
0.7520,1520
0.7540,1168
0.7560,1248
0.7580,1600
0.7600,1584
0.7620,1568
0.7640,1376
0.7660,1104
0.7680,1040
0.7700,1440
0.7720,1472
0.7740,1088
0.7760,1040
0.7780,1120
0.7800,928
0.7820,1696
0.7840,1072
0.7860,1024
0.7880,1280
0.7900,1680
0.7920,1312
0.7940,1152
0.7960,1120
0.7980,976
0.8000,1056
0.8020,1408
0.8040,1376
0.8060,1312
0.8080,1232
0.8100,1232
0.8120,1120
0.8140,1056
0.8160,1184
0.8180,1312
0.8200,1008
0.8220,1552
0.8240,1744
0.8260,1536
0.8280,1184
0.8300,1200
0.8320,1072
0.8340,912
0.8360,1072
0.8380,1264
0.8400,2064
0.8420,2208
0.8440,1296
0.8460,1664
0.8480,1232
0.8500,928
0.8520,1504
0.8540,1072
0.8560,1968
0.8580,1680
0.8600,1184
0.8620,1280
0.8640,912
0.8660,944
0.8680,1456
0.8700,1088
0.8720,1584
0.8740,1408
0.8760,1184
0.8780,944
0.8800,1248
0.8820,1184
0.8840,1120
0.8860,1104
0.8880,1888
0.8900,1408
0.8920,1056
0.8940,1024
0.8960,1120
0.8980,1264
0.9000,1088
0.9020,1008
0.9040,1120
0.9060,1856
0.9080,1104
0.9100,1056
0.9120,1264
0.9140,1424
0.9160,832
0.9180,1552
0.9200,1696
0.9220,1504
0.9240,1024
0.9260,1200
0.9280,1216
0.9300,1072
0.9320,1232
0.9340,1280
0.9360,1504
0.9380,1376
0.9400,1504
0.9420,1152
0.9440,1024
0.9460,1120
0.9480,1072
0.9500,848
0.9520,1184
0.9540,1296
0.9560,1296
0.9580,1360
0.9600,1328
0.9620,816
0.9640,1344
0.9660,1072
0.9680,1440
0.9700,1712
0.9720,2272
0.9740,1584
0.9760,1376
0.9780,1120
0.9800,1216
0.9820,960
0.9840,1360
0.9860,992
0.9880,1376
0.9900,1248
0.9920,2064
0.9940,1360
0.9960,960
0.9980,1056
1.0000,1120
1.0020,1328
1.0040,1728
1.0060,1328
1.0080,1168
1.0100,1184
1.0120,1296
1.0140,1280
1.0160,1232
1.0180,1760
1.0200,1184
1.0220,1168
1.0240,1632
1.0260,1120
1.0280,1808
1.0300,1552
1.0320,1248
1.0340,1472
1.0360,1168
1.0380,1344
1.0400,1520
1.0420,1456
1.0440,1280
1.0460,1264
1.0480,1296
1.0500,1152
1.0520,1152
1.0540,1344
1.0560,1312
1.0580,1504
1.0600,1168
1.0620,1200
1.0640,1600
1.0660,1840
1.0680,1296
1.0700,1280
1.0720,1376
1.0740,1280
1.0760,1632
1.0780,1040
1.0800,1040
1.0820,1120
1.0840,1184
1.0860,1680
1.0880,1360
1.0900,960
1.0920,2512
1.0940,1248
1.0960,1216
1.0980,1088
1.1000,1152
1.1020,1024
1.1040,2208
1.1060,1328
1.1080,1376
1.1100,1232
1.1120,1040
1.1140,1424
1.1160,1312
1.1180,1104
1.1200,1296
1.1220,1344
1.1240,1952
1.1260,1440
1.1280,1104
1.1300,1200
1.1320,1456
1.1340,1248
1.1360,1168
1.1380,1328
1.1400,1312
1.1420,1680
1.1440,1152
1.1460,1200
1.1480,1328
1.1500,1088
1.1520,912
1.1540,1408
1.1560,1408
1.1580,1264
1.1600,1328
1.1620,1232
1.1640,1040
1.1660,1360
1.1680,944
1.1700,1648
1.1720,1248
1.1740,1392
1.1760,1360
1.1780,1152
1.1800,1200
1.1820,1232
1.1840,1216
1.1860,1056
1.1880,1696
1.1900,1408
1.1920,1776
1.1940,1344
1.1960,848
1.1980,1200
1.2000,1120
1.2020,1664
1.2040,1184
1.2060,1504
1.2080,944
1.2100,1376
1.2120,1312
1.2140,896
1.2160,1376
1.2180,1136
1.2200,1360
1.2220,1184
1.2240,1536
1.2260,1408
1.2280,1456
1.2300,1216
1.2320,1088
1.2340,1248
1.2360,1168
1.2380,1168
1.2400,1504
1.2420,1104
1.2440,1744
1.2460,1456
1.2480,1184
1.2500,1488
1.2520,1120
1.2540,1392
1.2560,1888
1.2580,1552
1.2600,2096
1.2620,1152
1.2640,1184
1.2660,1040
1.2680,1296
1.2700,1040
1.2720,1504
1.2740,1120
1.2760,1488
1.2780,928
1.2800,912
1.2820,1344
1.2840,1184
1.2860,1376
1.2880,1408
1.2900,1056
1.2920,1696
1.2940,1392
1.2960,1088
1.2980,1232
1.3000,1392
1.3020,1296
1.3040,1024
1.3060,1376
1.3080,1344
1.3100,1696
1.3120,992
1.3140,1408
1.3160,1232
1.3180,944
1.3200,1664
1.3220,1360
1.3240,1168
1.3260,1232
1.3280,1024
1.3300,1104
1.3320,1408
1.3340,1424
1.3360,1168
1.3380,1408
1.3400,1232
1.3420,2064
1.3440,1632
1.3460,1104
1.3480,1456
1.3500,1248
1.3520,784
1.3540,1312
1.3560,1552
1.3580,1488
1.3600,2208
1.3620,1152
1.3640,1216
1.3660,1872
1.3680,2016
1.3700,1360
1.3720,1952
1.3740,2128
1.3760,1808
1.3780,1344
1.3800,1296
1.3820,1632
1.3840,1328
1.3860,768
1.3880,992
1.3900,1696
1.3920,2000
1.3940,1232
1.3960,1376
1.3980,1472
1.4000,1248
1.4020,1200
1.4040,1856
1.4060,1184
1.4080,1712
1.4100,1296
1.4120,1360
1.4140,1584
1.4160,1120
1.4180,1376
1.4200,2896
1.4220,1936
1.4240,1824
1.4260,1632
1.4280,1376
1.4300,1552
1.4320,768
1.4340,1088
1.4360,1232
1.4380,1488
1.4400,1408
1.4420,1680
1.4440,2368
1.4460,1168
1.4480,912
1.4500,1312
1.4520,1552
1.4540,1712
1.4560,1680
1.4580,1680
1.4600,1104
1.4620,1152
1.4640,992
1.4660,960
1.4680,1488
1.4700,1088
1.4720,1040
1.4740,1360
1.4760,1040
1.4780,1312
1.4800,1328
1.4820,1152
1.4840,1072
1.4860,1152
1.4880,1440
1.4900,1152
1.4920,1664
1.4940,1632
1.4960,1120
1.4980,1072
1.5000,1424
1.5020,1040
1.5040,1728
1.5060,1296
1.5080,1616
1.5100,976
1.5120,1024
1.5140,992
1.5160,1312
1.5180,1616
1.5200,1344
1.5220,1552
1.5240,1328
1.5260,1632
1.5280,1600
1.5300,1376
1.5320,1088
1.5340,1168
1.5360,1184
1.5380,1168
1.5400,1872
1.5420,1616
1.5440,1184
1.5460,1520
1.5480,1280
1.5500,1056
1.5520,1456
1.5540,1536
1.5560,1184
1.5580,1664
1.5600,1088
1.5620,1728
1.5640,1184
1.5660,1424
1.5680,1312
1.5700,1168
1.5720,1984
1.5740,1488
1.5760,1248
1.5780,976
1.5800,1088
1.5820,1296
1.5840,1632
1.5860,1232
1.5880,1200
1.5900,1584
1.5920,1616
1.5940,1088
1.5960,1280
1.5980,1648
1.6000,1408
1.6020,1840
1.6040,1184
1.6060,1584
1.6080,2048
1.6100,1408
1.6120,1536
1.6140,1728
1.6160,1120
1.6180,1200
1.6200,1360
1.6220,1584
1.6240,2224
1.6260,976
1.6280,992
1.6300,1248
1.6320,1552
1.6340,1488
1.6360,1328
1.6380,1584
1.6400,1552
1.6420,1728
1.6440,1472
1.6460,1136
1.6480,1216
1.6500,1200
1.6520,1536
1.6540,1824
1.6560,2000
1.6580,1696
1.6600,1344
1.6620,1088
1.6640,1104
1.6660,1456
1.6680,1248
1.6700,1232
1.6720,2128
1.6740,1312
1.6760,1808
1.6780,1024
1.6800,1536
1.6820,1888
1.6840,1504
1.6860,1168
1.6880,2512
1.6900,1456
1.6920,1120
1.6940,1584
1.6960,1376
1.6980,1248
1.7000,1872
1.7020,1456
1.7040,960
1.7060,976
1.7080,1664
1.7100,1232
1.7120,1568
1.7140,1184
1.7160,1040
1.7180,1344
1.7200,1552
1.7220,1456
1.7240,1984
1.7260,1504
1.7280,1872
1.7300,976
1.7320,1296
1.7340,1424
1.7360,1840
1.7380,1152
1.7400,1600
1.7420,1632
1.7440,1696
1.7460,1696
1.7480,704
1.7500,1472
1.7520,960
1.7540,1312
1.7560,1344
1.7580,1568
1.7600,1600
1.7620,1536
1.7640,1328
1.7660,1456
1.7680,1152
1.7700,1328
1.7720,1376
1.7740,1536
1.7760,1296
1.7780,1296
1.7800,1376
1.7820,1296
1.7840,928
1.7860,1568
1.7880,1120
1.7900,1280
1.7920,1296
1.7940,1168
1.7960,1456
1.7980,1040
1.8000,1280
1.8020,1216
1.8040,1248
1.8060,1232
1.8080,1568
1.8100,1664
1.8120,1568
1.8140,1440
1.8160,1328
1.8180,1184
1.8200,1152
1.8220,1328
1.8240,1232
1.8260,1328
1.8280,1600
1.8300,2096
1.8320,960
1.8340,1776
1.8360,1328
1.8380,1504
1.8400,1184
1.8420,1584
1.8440,1104
1.8460,1360
1.8480,1024
1.8500,1088
1.8520,1344
1.8540,1472
1.8560,1328
1.8580,1152
1.8600,1216
1.8620,1168
1.8640,1504
1.8660,1264
1.8680,1712
1.8700,1408
1.8720,1552
1.8740,1968
1.8760,1056
1.8780,1152
1.8800,1088
1.8820,1040
1.8840,976
1.8860,1456
1.8880,1216
1.8900,1952
1.8920,1184
1.8940,1488
1.8960,1280
1.8980,928
1.9000,1424
1.9020,1488
1.9040,1360
1.9060,1728
1.9080,1936
1.9100,1504
1.9120,1024
1.9140,1536
1.9160,1360
1.9180,1600
1.9200,1488
1.9220,1632
1.9240,1392
1.9260,1680
1.9280,1056
1.9300,1424
1.9320,1616
1.9340,1232
1.9360,2048
1.9380,1248
1.9400,1840
1.9420,1408
1.9440,1056
1.9460,1408
1.9480,1280
1.9500,1440
1.9520,1632
1.9540,1680
1.9560,1456
1.9580,1264
1.9600,1184
1.9620,1616
1.9640,1072
1.9660,1696
1.9680,1568
1.9700,1456
1.9720,2144
1.9740,1536
1.9760,1664
1.9780,1216
1.9800,1120
1.9820,1616
1.9840,1440
1.9860,1104
1.9880,1472
1.9900,1088
1.9920,2096
1.9940,1104
1.9960,1280
1.9980,1216
2.0000,1424
2.0020,1280
2.0040,1504
2.0060,1600
2.0080,1600
2.0100,1104
2.0120,1360
2.0140,1472
2.0160,864
2.0180,1584
2.0200,1504
2.0220,1312
2.0240,1536
2.0260,1824
2.0280,1248
2.0300,1248
2.0320,1232
2.0340,1472
2.0360,1600
2.0380,1664
2.0400,1088
2.0420,2336
2.0440,1376
2.0460,976
2.0480,1728
2.0500,1984
2.0520,1184
2.0540,2224
2.0560,1568
2.0580,1456
2.0600,1840
2.0620,1392
2.0640,1040
2.0660,1504
2.0680,1120
2.0700,1456
2.0720,1232
2.0740,1216
2.0760,1520
2.0780,1440
2.0800,1552
2.0820,1280
2.0840,976
2.0860,976
2.0880,1440
2.0900,1184
2.0920,1072
2.0940,1424
2.0960,1760
2.0980,1568
2.1000,2640
2.1020,1472
2.1040,1280
2.1060,1104
2.1080,1504
2.1100,1360
2.1120,1552
2.1140,1376
2.1160,1520
2.1180,1600
2.1200,1088
2.1220,1744
2.1240,1200
2.1260,992
2.1280,1424
2.1300,1168
2.1320,1488
2.1340,1504
2.1360,1024
2.1380,1280
2.1400,1104
2.1420,1952
2.1440,1296
2.1460,1488
2.1480,1280
2.1500,1424
2.1520,1040
2.1540,1200
2.1560,1536
2.1580,1584
2.1600,1088
2.1620,1184
2.1640,1232
2.1660,1104
2.1680,2000
2.1700,1120
2.1720,1712
2.1740,1376
2.1760,1616
2.1780,1456
2.1800,1152
2.1820,1568
2.1840,1504
2.1860,1616
2.1880,1088
2.1900,1792
2.1920,1504
2.1940,1456
2.1960,1376
2.1980,1536
2.2000,1008
2.2020,1264
2.2040,1328
2.2060,1488
2.2080,1616
2.2100,1552
2.2120,1520
2.2140,944
2.2160,1504
2.2180,1584
2.2200,1408
2.2220,1136
2.2240,1376
2.2260,1296
2.2280,1600
2.2300,1536
2.2320,1760
2.2340,1248
2.2360,1584
2.2380,1696
2.2400,1088
2.2420,1520
2.2440,1248
2.2460,1088
2.2480,992
2.2500,1616
2.2520,1456
2.2540,1104
2.2560,1680
2.2580,1776
2.2600,1312
2.2620,1184
2.2640,1104
2.2660,1120
2.2680,1760
2.2700,1344
2.2720,1664
2.2740,1344
2.2760,1200
2.2780,1040
2.2800,1200
2.2820,1216
2.2840,1632
2.2860,1440
2.2880,1600
2.2900,1184
2.2920,1264
2.2940,1984
2.2960,1232
2.2980,1424
2.3000,1296
2.3020,1168
2.3040,1216
2.3060,1408
2.3080,1696
2.3100,1312
2.3120,1184
2.3140,1344
2.3160,1104
2.3180,928
2.3200,1232
2.3220,1280
2.3240,1728
2.3260,1616
2.3280,1056
2.3300,1808
2.3320,1872
2.3340,1344
2.3360,1216
2.3380,1488
2.3400,1312
2.3420,1248
2.3440,1248
2.3460,1168
2.3480,1408
2.3500,1504
2.3520,1456
2.3540,1616
2.3560,1232
2.3580,1600
2.3600,1184
2.3620,1536
2.3640,1216
2.3660,1040
2.3680,1040
2.3700,1488
2.3720,2304
2.3740,1824
2.3760,1168
2.3780,1376
2.3800,1504
2.3820,1328
2.3840,1120
2.3860,1680
2.3880,1552
2.3900,1776
2.3920,1728
2.3940,1200
2.3960,1344
2.3980,1120
2.4000,1712
2.4020,1344
2.4040,1664
2.4060,1616
2.4080,1120
2.4100,1712
2.4120,1424
2.4140,1104
2.4160,1824
2.4180,1408
2.4200,1712
2.4220,1328
2.4240,1712
2.4260,1040
2.4280,1632
2.4300,1072
2.4320,1232
2.4340,1168
2.4360,1344
2.4380,1728
2.4400,1696
2.4420,1440
2.4440,1504
2.4460,1408
2.4480,1488
2.4500,1584
2.4520,1360
2.4540,1472
2.4560,896
2.4580,2576
2.4600,912
2.4620,1024
2.4640,1184
2.4660,1616
2.4680,1616
2.4700,1296
2.4720,1424
2.4740,1632
2.4760,1808
2.4780,1536
2.4800,1264
2.4820,1168
2.4840,1312
2.4860,1072
2.4880,1184
2.4900,1808
2.4920,1760
2.4940,1264
2.4960,1408
2.4980,1072
2.5000,1168
2.5020,1488
2.5040,1472
2.5060,1280
2.5080,1392
2.5100,1824
2.5120,1200
2.5140,1104
2.5160,1392
2.5180,1504
2.5200,1520
2.5220,1744
2.5240,1840
2.5260,1360
2.5280,1936
2.5300,1456
2.5320,1536
2.5340,1136
2.5360,1424
2.5380,1168
2.5400,1424
2.5420,1392
2.5440,1088
2.5460,1200
2.5480,1840
2.5500,1584
2.5520,928
2.5540,1456
2.5560,1808
2.5580,1712
2.5600,1312
2.5620,1200
2.5640,608
2.5660,1280
2.5680,912
2.5700,1936
2.5720,1504
2.5740,2336
2.5760,1728
2.5780,1200
2.5800,1280
2.5820,1488
2.5840,1056
2.5860,1408
2.5880,1312
2.5900,1696
2.5920,1520
2.5940,1360
2.5960,1152
2.5980,1344
2.6000,1232
2.6020,1424
2.6040,1184
2.6060,1568
2.6080,1360
2.6100,1440
2.6120,1488
2.6140,1584
2.6160,1232
2.6180,1232
2.6200,864
2.6220,1536
2.6240,1840
2.6260,1408
2.6280,1056
2.6300,1344
2.6320,1248
2.6340,1600
2.6360,1376
2.6380,1424
2.6400,9554
2.6420,8514
2.6440,1440
2.6460,1680
2.6480,1056
2.6500,1376
2.6520,1408
2.6540,1360
2.6560,2096
2.6580,1328
2.6600,1472
2.6620,1168
2.6640,1104
2.6660,1776
2.6680,1472
2.6700,1712
2.6720,1424
2.6740,1408
2.6760,1536
2.6780,1088
2.6800,1216
2.6820,1616
2.6840,1552
2.6860,1248
2.6880,2048
2.6900,1568
2.6920,1488
2.6940,1248
2.6960,1296
2.6980,1552
2.7000,1872
2.7020,1120
2.7040,1408
2.7060,1840
2.7080,1520
2.7100,1680
2.7120,1056
2.7140,1472
2.7160,1808
2.7180,1184
2.7200,1712
2.7220,2400
2.7240,1344
2.7260,1248
2.7280,976
2.7300,1472
2.7320,1040
2.7340,1344
2.7360,1632
2.7380,1264
2.7400,1504
2.7420,1600
2.7440,1376
2.7460,1296
2.7480,1216
2.7500,1472
2.7520,1456
2.7540,1472
2.7560,928
2.7580,1408
2.7600,1552
2.7620,1552
2.7640,1456
2.7660,1488
2.7680,1728
2.7700,1680
2.7720,1584
2.7740,1680
2.7760,1584
2.7780,1584
2.7800,1648
2.7820,2192
2.7840,1936
2.7860,1696
2.7880,1600
2.7900,1472
2.7920,1328
2.7940,1360
2.7960,1120
2.7980,1248
2.8000,1248
2.8020,1248
2.8040,1152
2.8060,1248
2.8080,2128
2.8100,1504
2.8120,1216
2.8140,1616
2.8160,960
2.8180,1248
2.8200,1120
2.8220,1664
2.8240,1744
2.8260,1248
2.8280,1680
2.8300,1440
2.8320,1024
2.8340,1232
2.8360,1424
2.8380,1696
2.8400,1184
2.8420,1312
2.8440,1152
2.8460,1712
2.8480,928
2.8500,1456
2.8520,1424
2.8540,1664
2.8560,1536
2.8580,1328
2.8600,1280
2.8620,1552
2.8640,912
2.8660,1344
2.8680,1104
2.8700,1536
2.8720,1440
2.8740,1344
2.8760,1504
2.8780,1152
2.8800,1328
2.8820,1472
2.8840,1136
2.8860,1184
2.8880,1152
2.8900,1424
2.8920,1488
2.8940,1344
2.8960,848
2.8980,1040
2.9000,1072
2.9020,1488
2.9040,1200
2.9060,1648
2.9080,1440
2.9100,1248
2.9120,1616
2.9140,1584
2.9160,1280
2.9180,1376
2.9200,1200
2.9220,1536
2.9240,1536
2.9260,1536
2.9280,1312
2.9300,1696
2.9320,3920
2.9340,5201
2.9360,1120
2.9380,1792
2.9400,2400
2.9420,1232
2.9440,1360
2.9460,1600
2.9480,2176
2.9500,2592
2.9520,1264
2.9540,1472
2.9560,1328
2.9580,1792
2.9600,1232
2.9620,1520
2.9640,1504
2.9660,1072
2.9680,1312
2.9700,1728
2.9720,1088
2.9740,1792
2.9760,1936
2.9780,1504
2.9800,1040
2.9820,1328
2.9840,1056
2.9860,1760
2.9880,1424
2.9900,1712
2.9920,1680
2.9940,1584
2.9960,1552
2.9980,1600
3.0000,1216
3.0020,1088
3.0040,1152
3.0060,1088
3.0080,1792
3.0100,1152
3.0120,1632
3.0140,2016
3.0160,1984
3.0180,1072
3.0200,1536
3.0220,1664
3.0240,1712
3.0260,1568
3.0280,1568
3.0300,1168
3.0320,1152
3.0340,1520
3.0360,1728
3.0380,1664
3.0400,1536
3.0420,1872
3.0440,1168
3.0460,1120
3.0480,1216
3.0500,2064
3.0520,1088
3.0540,2208
3.0560,1392
3.0580,1712
3.0600,1248
3.0620,1056
3.0640,960
3.0660,1056
3.0680,1680
3.0700,1168
3.0720,1440
3.0740,1536
3.0760,1808
3.0780,1296
3.0800,1312
3.0820,1040
3.0840,1600
3.0860,1504
3.0880,1408
3.0900,1264
3.0920,1104
3.0940,1760
3.0960,1152
3.0980,1856
3.1000,1312
3.1020,960
3.1040,1136
3.1060,1712
3.1080,1760
3.1100,1152
3.1120,1360
3.1140,1104
3.1160,1200
3.1180,1280
3.1200,1472
3.1220,1488
3.1240,1216
3.1260,1440
3.1280,1264
3.1300,1136
3.1320,1296
3.1340,1456
3.1360,1856
3.1380,1504
3.1400,1392
3.1420,1104
3.1440,2224
3.1460,1120
3.1480,1008
3.1500,1408
3.1520,1328
3.1540,1312
3.1560,1280
3.1580,1536
3.1600,1104
3.1620,1424
3.1640,1024
3.1660,1280
3.1680,1312
3.1700,1520
3.1720,1504
3.1740,1328
3.1760,1184
3.1780,1376
3.1800,1136
3.1820,1360
3.1840,1376
3.1860,1584
3.1880,1168
3.1900,1760
3.1920,912
3.1940,1344
3.1960,992
3.1980,1120
3.2000,1328
3.2020,1328
3.2040,1472
3.2060,1296
3.2080,1888
3.2100,1216
3.2120,1232
3.2140,1040
3.2160,1104
3.2180,1920
3.2200,1184
3.2220,1632
3.2240,1824
3.2260,1360
3.2280,1088
3.2300,1456
3.2320,1568
3.2340,1152
3.2360,1392
3.2380,1680
3.2400,1856
3.2420,1408
3.2440,1168
3.2460,1504
3.2480,1328
3.2500,1456
3.2520,1344
3.2540,1232
3.2560,1248
3.2580,1568
3.2600,1456
3.2620,1056
3.2640,1040
3.2660,1568
3.2680,1712
3.2700,1600
3.2720,1808
3.2740,1632
3.2760,1232
3.2780,1360
3.2800,1168
3.2820,1184
3.2840,1104
3.2860,1376
3.2880,1408
3.2900,1216
3.2920,1440
3.2940,960
3.2960,1296
3.2980,992
3.3000,1088
3.3020,1248
3.3040,1536
3.3060,1344
3.3080,1312
3.3100,1472
3.3120,992
3.3140,1408
3.3160,1632
3.3180,1280
3.3200,1248
3.3220,1200
3.3240,1584
3.3260,1552
3.3280,1312
3.3300,1280
3.3320,1312
3.3340,1536
3.3360,1248
3.3380,1744
3.3400,1600
3.3420,1024
3.3440,1216
3.3460,1408
3.3480,1824
3.3500,1472
3.3520,1408
3.3540,1664
3.3560,1376
3.3580,1360
3.3600,1200
3.3620,1408
3.3640,976
3.3660,1392
3.3680,1472
3.3700,1312
3.3720,1840
3.3740,1616
3.3760,1040
3.3780,976
3.3800,1552
3.3820,1024
3.3840,960
3.3860,1488
3.3880,1312
3.3900,2224
3.3920,1744
3.3940,1744
3.3960,1472
3.3980,1104
3.4000,1808
3.4020,1344
3.4040,1520
3.4060,1424
3.4080,1616
3.4100,1360
3.4120,1232
3.4140,1504
3.4160,976
3.4180,1568
3.4200,1232
3.4220,1376
3.4240,1040
3.4260,2064
3.4280,1504
3.4300,1760
3.4320,1584
3.4340,1232
3.4360,1216
3.4380,1440
3.4400,1680
3.4420,1248
3.4440,1904
3.4460,1728
3.4480,1584
3.4500,1504
3.4520,1728
3.4540,1488
3.4560,2112
3.4580,1840
3.4600,1712
3.4620,1104
3.4640,1152
3.4660,1168
3.4680,1760
3.4700,1200
3.4720,1216
3.4740,2128
3.4760,1280
3.4780,1424
3.4800,1296
3.4820,1360
3.4840,1312
3.4860,1280
3.4880,1488
3.4900,1728
3.4920,1120
3.4940,1136
3.4960,1200
3.4980,1728
3.5000,912
3.5020,1408
3.5040,2416
3.5060,1728
3.5080,1344
3.5100,1280
3.5120,1280
3.5140,1056
3.5160,1152
3.5180,1424
3.5200,1632
3.5220,1824
3.5240,1408
3.5260,1072
3.5280,1040
3.5300,1216
3.5320,1184
3.5340,1072
3.5360,1104
3.5380,1296
3.5400,1376
3.5420,1408
3.5440,1664
3.5460,1200
3.5480,1328
3.5500,1712
3.5520,1536
3.5540,2208
3.5560,1536
3.5580,1552
3.5600,1072
3.5620,1504
3.5640,1536
3.5660,1472
3.5680,1040
3.5700,1216
3.5720,1632
3.5740,1744
3.5760,1200
3.5780,1728
3.5800,1440
3.5820,1056
3.5840,1312
3.5860,1360
3.5880,1472
3.5900,1296
3.5920,1136
3.5940,1696
3.5960,1200
3.5980,1664
3.6000,944
3.6020,1664
3.6040,1216
3.6060,1328
3.6080,1536
3.6100,1216
3.6120,1152
3.6140,1248
3.6160,1456
3.6180,1632
3.6200,1584
3.6220,1280
3.6240,1744
3.6260,1040
3.6280,1168
3.6300,2384
3.6320,1024
3.6340,1424
3.6360,1520
3.6380,1296
3.6400,1536
3.6420,1184
3.6440,1200
3.6460,928
3.6480,1312
3.6500,1152
3.6520,1584
3.6540,1952
3.6560,1488
3.6580,1072
3.6600,1360
3.6620,1120
3.6640,1360
3.6660,1744
3.6680,864
3.6700,1680
3.6720,1312
3.6740,1712
3.6760,1280
3.6780,1248
3.6800,800
3.6820,1152
3.6840,1360
3.6860,1248
3.6880,1664
3.6900,1280
3.6920,1568
3.6940,1152
3.6960,1312
3.6980,1664
3.7000,1536
3.7020,1120
3.7040,1424
3.7060,1296
3.7080,1312
3.7100,1456
3.7120,1104
3.7140,1184
3.7160,1360
3.7180,1152
3.7200,1232
3.7220,1824
3.7240,1472
3.7260,1264
3.7280,1120
3.7300,1616
3.7320,1440
3.7340,1680
3.7360,1632
3.7380,1216
3.7400,1552
3.7420,1232
3.7440,1408
3.7460,1440
3.7480,1536
3.7500,1216
3.7520,1552
3.7540,1824
3.7560,1568
3.7580,1888
3.7600,1344
3.7620,1568
3.7640,1472
3.7660,1104
3.7680,1200
3.7700,1120
3.7720,2112
3.7740,1600
3.7760,1504
3.7780,1120
3.7800,1664
3.7820,1056
3.7840,1152
3.7860,1120
3.7880,1280
3.7900,1840
3.7920,1520
3.7940,992
3.7960,1184
3.7980,1632
3.8000,1216
3.8020,1072
3.8040,1728
3.8060,1760
3.8080,1792
3.8100,1232
3.8120,1328
3.8140,944
3.8160,1344
3.8180,1584
3.8200,1408
3.8220,1440
3.8240,1360
3.8260,1200
3.8280,1552
3.8300,1488
3.8320,1264
3.8340,1616
3.8360,1424
3.8380,1120
3.8400,1600
3.8420,1472
3.8440,1472
3.8460,1504
3.8480,1120
3.8500,1824
3.8520,1056
3.8540,1184
3.8560,1616
3.8580,1168
3.8600,1584
3.8620,1376
3.8640,1040
3.8660,1248
3.8680,1472
3.8700,1536
3.8720,1472
3.8740,1328
3.8760,1312
3.8780,1104
3.8800,1504
3.8820,1440
3.8840,1104
3.8860,1584
3.8880,1728
3.8900,1296
3.8920,1536
3.8940,1632
3.8960,1488
3.8980,1504
3.9000,1120
3.9020,1408
3.9040,1360
3.9060,1792
3.9080,1424
3.9100,1536
3.9120,1456
3.9140,1712
3.9160,1216
3.9180,1744
3.9200,1440
3.9220,1728
3.9240,1808
3.9260,1248
3.9280,1632
3.9300,1424
3.9320,1120
3.9340,1424
3.9360,1248
3.9380,1792
3.9400,1696
3.9420,1344
3.9440,1856
3.9460,1088
3.9480,1312
3.9500,944
3.9520,1424
3.9540,1376
3.9560,1472
3.9580,1296
3.9600,1360
3.9620,992
3.9640,1440
3.9660,1328
3.9680,1440
3.9700,1552
3.9720,1952
3.9740,1200
3.9760,1056
3.9780,1376
3.9800,1056
3.9820,1120
3.9840,1424
3.9860,1392
3.9880,1360
3.9900,1760
3.9920,1552
3.9940,1296
3.9960,1440
3.9980,1056
4.0000,1008
4.0020,1056
4.0040,1744
4.0060,1568
4.0080,1168
4.0100,1216
4.0120,1536
4.0140,1104
4.0160,1168
4.0180,1456
4.0200,1328
4.0220,1584
4.0240,1712
4.0260,1056
4.0280,1296
4.0300,1568
4.0320,1104
4.0340,1104
4.0360,1232
4.0380,1408
4.0400,1520
4.0420,1552
4.0440,1600
4.0460,1840
4.0480,1200
4.0500,1120
4.0520,1488
4.0540,1696
4.0560,1216
4.0580,2080
4.0600,1504
4.0620,1440
4.0640,1424
4.0660,1264
4.0680,1280
4.0700,1168
4.0720,1280
4.0740,1472
4.0760,1360
4.0780,1312
4.0800,928
4.0820,1216
4.0840,1232
4.0860,1520
4.0880,1104
4.0900,1504
4.0920,1360
4.0940,1504
4.0960,1248
4.0980,1072
4.1000,1056
4.1020,1664
4.1040,1216
4.1060,1552
4.1080,1168
4.1100,1568
4.1120,1328
4.1140,2176
4.1160,1504
4.1180,2096
4.1200,1680
4.1220,1200
4.1240,1280
4.1260,1984
4.1280,1360
4.1300,1600
4.1320,1248
4.1340,1824
4.1360,1616
4.1380,1408
4.1400,1488
4.1420,1616
4.1440,1584
4.1460,1920
4.1480,2656
4.1500,2016
4.1520,1312
4.1540,1312
4.1560,1088
4.1580,1248
4.1600,848
4.1620,976
4.1640,1216
4.1660,1120
4.1680,1712
4.1700,1408
4.1720,1216
4.1740,1440
4.1760,1696
4.1780,1120
4.1800,1200
4.1820,1680
4.1840,1152
4.1860,1424
4.1880,2176
4.1900,1296
4.1920,1184
4.1940,1664
4.1960,1520
4.1980,1552
4.2000,1152
4.2020,1824
4.2040,1600
4.2060,1568
4.2080,1216
4.2100,1200
4.2120,1472
4.2140,1104
4.2160,1744
4.2180,1328
4.2200,1488
4.2220,1552
4.2240,1616
4.2260,2000
4.2280,1424
4.2300,1552
4.2320,1408
4.2340,1920
4.2360,1104
4.2380,1584
4.2400,1776
4.2420,1728
4.2440,1584
4.2460,1456
4.2480,1536
4.2500,1248
4.2520,1536
4.2540,1344
4.2560,2128
4.2580,1072
4.2600,1088
4.2620,1632
4.2640,1056
4.2660,1200
4.2680,1328
4.2700,1760
4.2720,1360
4.2740,1440
4.2760,1280
4.2780,1424
4.2800,1328
4.2820,992
4.2840,1344
4.2860,1552
4.2880,1104
4.2900,1424
4.2920,1216
4.2940,1520
4.2960,1024
4.2980,1296
4.3000,1600
4.3020,1280
4.3040,1296
4.3060,1408
4.3080,1328
4.3100,928
4.3120,1520
4.3140,1424
4.3160,1616
4.3180,1328
4.3200,1216
4.3220,1840
4.3240,1552
4.3260,1488
4.3280,1456
4.3300,1056
4.3320,1536
4.3340,1568
4.3360,1584
4.3380,1456
4.3400,1408
4.3420,1616
4.3440,1600
4.3460,1088
4.3480,1280
4.3500,1520
4.3520,1248
4.3540,1200
4.3560,1760
4.3580,1520
4.3600,992
4.3620,1200
4.3640,928
4.3660,1472
4.3680,1312
4.3700,1456
4.3720,1584
4.3740,1680
4.3760,1088
4.3780,1328
4.3800,1280
4.3820,1216
4.3840,1056
4.3860,1552
4.3880,1344
4.3900,1568
4.3920,1280
4.3940,1040
4.3960,1616
4.3980,1376
4.4000,1744
4.4020,1424
4.4040,1424
4.4060,1360
4.4080,1360
4.4100,1680
4.4120,1248
4.4140,1152
4.4160,1088
4.4180,1488
4.4200,1312
4.4220,1360
4.4240,1440
4.4260,1424
4.4280,1616
4.4300,1920
4.4320,1616
4.4340,1520
4.4360,1456
4.4380,1328
4.4400,1392
4.4420,1440
4.4440,1552
4.4460,1168
4.4480,1248
4.4500,1424
4.4520,1376
4.4540,1696
4.4560,1328
4.4580,1264
4.4600,1104
4.4620,1024
4.4640,1232
4.4660,1408
4.4680,2128
4.4700,1424
4.4720,1216
4.4740,1616
4.4760,896
4.4780,1232
4.4800,1280
4.4820,1536
4.4840,1328
4.4860,1552
4.4880,1664
4.4900,2112
4.4920,1616
4.4940,1632
4.4960,1120
4.4980,1184
4.5000,1856
4.5020,1440
4.5040,1600
4.5060,1456
4.5080,1520
4.5100,1408
4.5120,1600
4.5140,976
4.5160,1104
4.5180,1152
4.5200,2000
4.5220,1200
4.5240,1952
4.5260,1360
4.5280,1280
4.5300,1360
4.5320,1456
4.5340,2192
4.5360,1216
4.5380,1792
4.5400,1168
4.5420,1056
4.5440,1904
4.5460,1504
4.5480,1200
4.5500,1488
4.5520,1744
4.5540,1600
4.5560,1824
4.5580,1632
4.5600,1248
4.5620,1120
4.5640,1408
4.5660,1584
4.5680,848
4.5700,1712
4.5720,1040
4.5740,1056
4.5760,1920
4.5780,1232
4.5800,1488
4.5820,1680
4.5840,992
4.5860,1824
4.5880,1472
4.5900,1216
4.5920,1344
4.5940,1280
4.5960,1456
4.5980,1424
4.6000,1184
4.6020,2000
4.6040,1280
4.6060,1216
4.6080,1632
4.6100,1488
4.6120,992
4.6140,1552
4.6160,1584
4.6180,1504
4.6200,1952
4.6220,1280
4.6240,1328
4.6260,1280
4.6280,1680
4.6300,1712
4.6320,1200
4.6340,1296
4.6360,1216
4.6380,1120
4.6400,1568
4.6420,1184
4.6440,1152
4.6460,1360
4.6480,992
4.6500,1216
4.6520,1248
4.6540,1520
4.6560,1488
4.6580,1360
4.6600,1104
4.6620,1936
4.6640,1296
4.6660,992
4.6680,1232
4.6700,1536
4.6720,1376
4.6740,1216
4.6760,1456
4.6780,1072
4.6800,1536
4.6820,1104
4.6840,1456
4.6860,1424
4.6880,1760
4.6900,1280
4.6920,1584
4.6940,1136
4.6960,1680
4.6980,1968
4.7000,2048
4.7020,1360
4.7040,1184
4.7060,1792
4.7080,1472
4.7100,1360
4.7120,1296
4.7140,1296
4.7160,1808
4.7180,1472
4.7200,1376
4.7220,1488
4.7240,1568
4.7260,960
4.7280,1584
4.7300,1584
4.7320,1120
4.7340,1328
4.7360,1776
4.7380,1408
4.7400,1296
4.7420,1360
4.7440,624
4.7460,1504
4.7480,1392
4.7500,1120
4.7520,1824
4.7540,1376
4.7560,1312
4.7580,1472
4.7600,1440
4.7620,1536
4.7640,1168
4.7660,1696
4.7680,1728
4.7700,1424
4.7720,1760
4.7740,1104
4.7760,960
4.7780,1216
4.7800,1280
4.7820,1552
4.7840,1376
4.7860,1424
4.7880,1728
4.7900,2368
4.7920,1200
4.7940,1456
4.7960,1520
4.7980,1472
4.8000,1344
4.8020,1712
4.8040,1232
4.8060,1360
4.8080,2704
4.8100,1472
4.8120,1584
4.8140,1344
4.8160,1152
4.8180,1616
4.8200,1296
4.8220,1424
4.8240,2000
4.8260,1616
4.8280,1168
4.8300,1184
4.8320,1056
4.8340,1200
4.8360,1232
4.8380,1616
4.8400,1168
4.8420,1504
4.8440,1120
4.8460,1152
4.8480,1440
4.8500,1168
4.8520,1360
4.8540,1104
4.8560,1792
4.8580,1200
4.8600,1440
4.8620,1184
4.8640,1280
4.8660,1280
4.8680,1120
4.8700,1328
4.8720,1456
4.8740,1520
4.8760,1440
4.8780,1696
4.8800,1184
4.8820,1328
4.8840,1088
4.8860,1152
4.8880,1424
4.8900,1552
4.8920,1088
4.8940,1216
4.8960,1248
4.8980,1616
4.9000,1584
4.9020,1680
4.9040,1280
4.9060,1744
4.9080,1792
4.9100,1040
4.9120,944
4.9140,1200
4.9160,1344
4.9180,1552
4.9200,1056
4.9220,1664
4.9240,1328
4.9260,1568
4.9280,1488
4.9300,928
4.9320,1488
4.9340,1696
4.9360,1968
4.9380,1696
4.9400,1296
4.9420,1232
4.9440,1312
4.9460,1344
4.9480,1456
4.9500,1280
4.9520,1504
4.9540,1664
4.9560,1600
4.9580,1376
4.9600,1472
4.9620,1184
4.9640,1808
4.9660,1504
4.9680,1680
4.9700,1488
4.9720,2208
4.9740,1552
4.9760,1488
4.9780,928
4.9800,1616
4.9820,1344
4.9840,1296
4.9860,1344
4.9880,1232
4.9900,1408
4.9920,1040
4.9940,1200
4.9960,960
4.9980,1616
5.0000,1584
5.0020,1216
5.0040,1888
5.0060,1488
5.0080,1600
5.0100,1104
5.0120,1248
5.0140,1072
5.0160,1296
5.0180,1632
5.0200,1424
5.0220,1664
5.0240,1504
5.0260,1680
5.0280,1312
5.0300,1456
5.0320,1248
5.0340,1520
5.0360,1376
5.0380,1456
5.0400,1184
5.0420,1376
5.0440,1152
5.0460,1024
5.0480,1040
5.0500,1632
5.0520,1488
5.0540,1344
5.0560,1792
5.0580,1360
5.0600,944
5.0620,1552
5.0640,1408
5.0660,1424
5.0680,1568
5.0700,1216
5.0720,1200
5.0740,2016
5.0760,1296
5.0780,928
5.0800,976
5.0820,1232
5.0840,992
5.0860,1472
5.0880,1104
5.0900,1584
5.0920,1216
5.0940,1328
5.0960,1024
5.0980,1456
5.1000,1248
5.1020,1632
5.1040,1744
5.1060,1344
5.1080,1472
5.1100,1616
5.1120,1104
5.1140,1168
5.1160,1600
5.1180,1248
5.1200,1552
5.1220,1584
5.1240,1360
5.1260,1024
5.1280,1328
5.1300,1376
5.1320,1712
5.1340,1472
5.1360,1632
5.1380,2368
5.1400,1792
5.1420,1488
5.1440,1104
5.1460,1552
5.1480,1168
5.1500,1184
5.1520,1280
5.1540,1648
5.1560,1488
5.1580,1472
5.1600,1472
5.1620,1232
5.1640,1360
5.1660,1440
5.1680,1376
5.1700,1616
5.1720,1824
5.1740,1424
5.1760,1680
5.1780,2288
5.1800,992
5.1820,1232
5.1840,1312
5.1860,1408
5.1880,1280
5.1900,1632
5.1920,1504
5.1940,960
5.1960,1120
5.1980,1664
5.2000,1424
5.2020,1648
5.2040,2144
5.2060,1552
5.2080,1424
5.2100,1696
5.2120,1024
5.2140,1040
5.2160,1088
5.2180,1280
5.2200,1376
5.2220,1408
5.2240,1440
5.2260,1232
5.2280,1232
5.2300,1936
5.2320,1696
5.2340,1104
5.2360,1840
5.2380,1280
5.2400,1312
5.2420,1792
5.2440,1616
5.2460,896
5.2480,1536
5.2500,1232
5.2520,1248
5.2540,1568
5.2560,1840
5.2580,1104
5.2600,1712
5.2620,1776
5.2640,1616
5.2660,1552
5.2680,1056
5.2700,1664
5.2720,1456
5.2740,1440
5.2760,1504
5.2780,1872
5.2800,1616
5.2820,1104
5.2840,1728
5.2860,1472
5.2880,1808
5.2900,1664
5.2920,1488
5.2940,1184
5.2960,976
5.2980,1072
5.3000,1744
5.3020,1200
5.3040,1776
5.3060,1568
5.3080,1200
5.3100,1456
5.3120,1424
5.3140,1440
5.3160,1440
5.3180,1376
5.3200,1600
5.3220,1696
5.3240,1456
5.3260,1088
5.3280,1344
5.3300,1216
5.3320,1424
5.3340,1504
5.3360,1024
5.3380,1744
5.3400,1232
5.3420,1664
5.3440,1536
5.3460,1216
5.3480,1456
5.3500,1328
5.3520,1504
5.3540,1440
5.3560,1456
5.3580,1328
5.3600,1536
5.3620,1488
5.3640,1456
5.3660,1280
5.3680,1600
5.3700,1520
5.3720,1648
5.3740,1536
5.3760,1440
5.3780,1568
5.3800,1008
5.3820,1456
5.3840,1664
5.3860,1312
5.3880,1440
5.3900,1520
5.3920,1696
5.3940,1120
5.3960,1456
5.3980,1472
5.4000,1328
5.4020,1584
5.4040,1344
5.4060,2080
5.4080,1664
5.4100,896
5.4120,1744
5.4140,1488
5.4160,1136
5.4180,1424
5.4200,1536
5.4220,2000
5.4240,1296
5.4260,1280
5.4280,1440
5.4300,1168
5.4320,1552
5.4340,1632
5.4360,1680
5.4380,1472
5.4400,1328
5.4420,1088
5.4440,1376
5.4460,1056
5.4480,848
5.4500,1568
5.4520,1792
5.4540,1744
5.4560,1328
5.4580,1584
5.4600,1216
5.4620,1168
5.4640,1056
5.4660,1472
5.4680,1536
5.4700,1616
5.4720,1520
5.4740,1696
5.4760,1568
5.4780,1168
5.4800,1408
5.4820,1120
5.4840,1424
5.4860,1200
5.4880,1600
5.4900,1456
5.4920,1152
5.4940,1328
5.4960,1488
5.4980,1632
5.5000,1504
5.5020,1520
5.5040,1232
5.5060,1088
5.5080,1216
5.5100,976
5.5120,1616
5.5140,1680
5.5160,2144
5.5180,1648
5.5200,1008
5.5220,1088
5.5240,1136
5.5260,1456
5.5280,1440
5.5300,1344
5.5320,944
5.5340,1792
5.5360,1584
5.5380,1328
5.5400,1216
5.5420,1456
5.5440,1456
5.5460,1152
5.5480,928
5.5500,1600
5.5520,2000
5.5540,1456
5.5560,1344
5.5580,1584
5.5600,1376
5.5620,1904
5.5640,1504
5.5660,976
5.5680,1104
5.5700,1360
5.5720,1552
5.5740,1504
5.5760,1360
5.5780,1536
5.5800,1456
5.5820,1200
5.5840,1248
5.5860,1328
5.5880,1824
5.5900,1488
5.5920,1120
5.5940,1216
5.5960,1072
5.5980,1072
5.6000,1200
5.6020,1696
5.6040,1600
5.6060,1968
5.6080,1312
5.6100,944
5.6120,1456
5.6140,1440
5.6160,1584
5.6180,1424
5.6200,1488
5.6220,1104
5.6240,1456
5.6260,1264
5.6280,1552
5.6300,1072
5.6320,1456
5.6340,1280
5.6360,1328
5.6380,1616
5.6400,1536
5.6420,1488
5.6440,1600
5.6460,1120
5.6480,1792
5.6500,1536
5.6520,1552
5.6540,1088
5.6560,1968
5.6580,1088
5.6600,1072
5.6620,1088
5.6640,1328
5.6660,1344
5.6680,1184
5.6700,1552
5.6720,1312
5.6740,1200
5.6760,1328
5.6780,1424
5.6800,1632
5.6820,1216
5.6840,1728
5.6860,1072
5.6880,1536
5.6900,1296
5.6920,1472
5.6940,1440
5.6960,1536
5.6980,1168
5.7000,1504
5.7020,1408
5.7040,1568
5.7060,1728
5.7080,992
5.7100,1536
5.7120,1408
5.7140,928
5.7160,1728
5.7180,1184
5.7200,1296
5.7220,1440
5.7240,1248
5.7260,1024
5.7280,1552
5.7300,1120
5.7320,1088
5.7340,1616
5.7360,1152
5.7380,1584
5.7400,1456
5.7420,1216
5.7440,1360
5.7460,1584
5.7480,1232
5.7500,1488
5.7520,1280
5.7540,1488
5.7560,1344
5.7580,1568
5.7600,1456
5.7620,1408
5.7640,1104
5.7660,1312
5.7680,1792
5.7700,1232
5.7720,1808
5.7740,1200
5.7760,1104
5.7780,1280
5.7800,1408
5.7820,1440
5.7840,1104
5.7860,1616
5.7880,1632
5.7900,1376
5.7920,1296
5.7940,1488
5.7960,1248
5.7980,1408
5.8000,1168
5.8020,1456
5.8040,1456
5.8060,1824
5.8080,1472
5.8100,1600
5.8120,1136
5.8140,1536
5.8160,1408
5.8180,1264
5.8200,1552
5.8220,1728
5.8240,1152
5.8260,1024
5.8280,1232
5.8300,1408
5.8320,1216
5.8340,1504
5.8360,1616
5.8380,1504
5.8400,1248
5.8420,1088
5.8440,1456
5.8460,1536
5.8480,1168
5.8500,1056
5.8520,576
5.8540,1744
5.8560,1392
5.8580,1440
5.8600,1312
5.8620,1344
5.8640,1088
5.8660,1184
5.8680,1072
5.8700,1280
5.8720,1776
5.8740,1632
5.8760,944
5.8780,1120
5.8800,1264
5.8820,1376
5.8840,1472
5.8860,1168
5.8880,1456
5.8900,1248
5.8920,1168
5.8940,1248
5.8960,1072
5.8980,1120
5.9000,1280
5.9020,1568
5.9040,1584
5.9060,1760
5.9080,1360
5.9100,1488
5.9120,1680
5.9140,1728
5.9160,1504
5.9180,1376
5.9200,1424
5.9220,1952
5.9240,1424
5.9260,1296
5.9280,1120
5.9300,1168
5.9320,1504
5.9340,1360
5.9360,1488
5.9380,1504
5.9400,1600
5.9420,1056
5.9440,992
5.9460,1312
5.9480,816
5.9500,1456
5.9520,1648
5.9540,1296
5.9560,1568
5.9580,1184
5.9600,1280
5.9620,1024
5.9640,1152
5.9660,1216
5.9680,1280
5.9700,1248
5.9720,1600
5.9740,1120
5.9760,1152
5.9780,1568
5.9800,1040
5.9820,1232
5.9840,1584
5.9860,1888
5.9880,1856
5.9900,1088
5.9920,1152
5.9940,1536
5.9960,1120
5.9980,1088
6.0000,1216
6.0020,1488
6.0040,1568
6.0060,1744
6.0080,1552
6.0100,1376
6.0120,1600
6.0140,1200
6.0160,1360
6.0180,1712
6.0200,1408
6.0220,1552
6.0240,1680
6.0260,1200
6.0280,1472
6.0300,1728
6.0320,1296
6.0340,1440
6.0360,1472
6.0380,1312
6.0400,1168
6.0420,1552
6.0440,1184
6.0460,1280
6.0480,1088
6.0500,1536
6.0520,1808
6.0540,1376
6.0560,1360
6.0580,1488
6.0600,1376
6.0620,1472
6.0640,880
6.0660,1552
6.0680,1488
6.0700,1600
6.0720,1968
6.0740,1104
6.0760,928
6.0780,1552
6.0800,1248
6.0820,1072
6.0840,1552
6.0860,1440
6.0880,1664
6.0900,1312
6.0920,1232
6.0940,1456
6.0960,1296
6.0980,1664
6.1000,3584
6.1020,3712
6.1040,1376
6.1060,1056
6.1080,1408
6.1100,1488
6.1120,2080
6.1140,1808
6.1160,1552
6.1180,1856
6.1200,1872
6.1220,1680
6.1240,976
6.1260,2608
6.1280,2224
6.1300,928
6.1320,5697
6.1340,2112
6.1360,1552
6.1380,6497
6.1400,5953
6.1420,1904
6.1440,2064
6.1460,1200
6.1480,1344
6.1500,2112
6.1520,1696
6.1540,1328
6.1560,1664
6.1580,1440
6.1600,1568
6.1620,4945
6.1640,9602
6.1660,9810
6.1680,2400
6.1700,12307
6.1720,6673
6.1740,2400
6.1760,2528
6.1780,2480
6.1800,1776
6.1820,944
6.1840,1488
6.1860,1568
6.1880,1344
6.1900,1200
6.1920,1760
6.1940,1584
6.1960,1472
6.1980,2432
6.2000,1472
6.2020,1824
6.2040,1904
6.2060,1344
6.2080,1712
6.2100,1312
6.2120,1184
6.2140,1328
6.2160,1088
6.2180,1664
6.2200,1808
6.2220,1360
6.2240,1184
6.2260,1152
6.2280,1408
6.2300,1104
6.2320,1520
6.2340,1168
6.2360,1488
6.2380,1712
6.2400,1552
6.2420,2128
6.2440,1504
6.2460,1280
6.2480,1376
6.2500,1312
6.2520,1456
6.2540,1104
6.2560,1424
6.2580,1088
6.2600,1200
6.2620,2352
6.2640,1552
6.2660,1920
6.2680,2432
6.2700,1744
6.2720,1760
6.2740,2896
6.2760,2112
6.2780,1904
6.2800,1616
6.2820,1600
6.2840,2256
6.2860,2144
6.2880,1104
6.2900,1520
6.2920,1248
6.2940,1232
6.2960,1424
6.2980,1712
6.3000,1296
6.3020,1664
6.3040,1664
6.3060,1360
6.3080,1296
6.3100,1600
6.3120,1344
6.3140,5505
6.3160,6385
6.3180,1872
6.3200,1376
6.3220,2416
6.3240,1664
6.3260,1152
6.3280,1280
6.3300,1440
6.3320,1232
6.3340,1184
6.3360,1424
6.3380,1936
6.3400,1616
6.3420,1088
6.3440,1536
6.3460,1232
6.3480,2992
6.3500,1248
6.3520,2144
6.3540,2128
6.3560,1536
6.3580,1328
6.3600,1184
6.3620,1664
6.3640,1440
6.3660,1616
6.3680,1248
6.3700,1344
6.3720,1360
6.3740,1232
6.3760,2288
6.3780,2656
6.3800,1712
6.3820,1120
6.3840,1632
6.3860,1120
6.3880,1280
6.3900,2096
6.3920,1344
6.3940,1088
6.3960,1184
6.3980,1712
6.4000,1472
6.4020,1216
6.4040,1504
6.4060,2112
6.4080,2000
6.4100,1616
6.4120,1344
6.4140,1088
6.4160,1472
6.4180,1456
6.4200,4545
6.4220,2240
6.4240,1472
6.4260,1472
6.4280,1456
6.4300,1584
6.4320,1488
6.4340,1696
6.4360,1600
6.4380,1248
6.4400,1424
6.4420,1216
6.4440,1456
6.4460,4689
6.4480,1504
6.4500,2016
6.4520,3376
6.4540,1888
6.4560,1632
6.4580,1408
6.4600,1088
6.4620,1120
6.4640,1536
6.4660,1792
6.4680,1184
6.4700,1344
6.4720,2384
6.4740,1280
6.4760,1520
6.4780,1280
6.4800,928
6.4820,1328
6.4840,1504
6.4860,1232
6.4880,2320
6.4900,1088
6.4920,1232
6.4940,1120
6.4960,1600
6.4980,1552
6.5000,2624
6.5020,2512
6.5040,2528
6.5060,1328
6.5080,2144
6.5100,1920
6.5120,1952
6.5140,1552
6.5160,1120
6.5180,1968
6.5200,1104
6.5220,1616
6.5240,1376
6.5260,1488
6.5280,1376
6.5300,2192
6.5320,2080
6.5340,1632
6.5360,1552
6.5380,1168
6.5400,1552
6.5420,1536
6.5440,5009
6.5460,2656
6.5480,2320
6.5500,1856
6.5520,2336
6.5540,1344
6.5560,1632
6.5580,1344
6.5600,1440
6.5620,1328
6.5640,1632
6.5660,1952
6.5680,1088
6.5700,1328
6.5720,4401
6.5740,1248
6.5760,2720
6.5780,3472
6.5800,8914
6.5820,1840
6.5840,2640
6.5860,4929
6.5880,2176
6.5900,4097
6.5920,1456
6.5940,1120
6.5960,1808
6.5980,1296
6.6000,1664
6.6020,1360
6.6040,1200
6.6060,1536
6.6080,3552
6.6100,2320
6.6120,1712
6.6140,1168
6.6160,6833
6.6180,1936
6.6200,2048
6.6220,1760
6.6240,1696
6.6260,2272
6.6280,1216
6.6300,1824
6.6320,2640
6.6340,1728
6.6360,1456
6.6380,1808
6.6400,1520
6.6420,1616
6.6440,1568
6.6460,1200
6.6480,4177
6.6500,4737
6.6520,1728
6.6540,1376
6.6560,4625
6.6580,2528
6.6600,1280
6.6620,2256
6.6640,1296
6.6660,1840
6.6680,2304
6.6700,1552
6.6720,2512
6.6740,1744
6.6760,1584
6.6780,2272
6.6800,1792
6.6820,1088
6.6840,1392
6.6860,5057
6.6880,1696
6.6900,2864
6.6920,1328
6.6940,2048
6.6960,1488
6.6980,1552
6.7000,1984
6.7020,1168
6.7040,2496
6.7060,1664
6.7080,1808
6.7100,1664
6.7120,2144
6.7140,2752
6.7160,4113
6.7180,2048
6.7200,2656
6.7220,1472
6.7240,4417
6.7260,1712
6.7280,1504
6.7300,1984
6.7320,1472
6.7340,1712
6.7360,2256
6.7380,6689
6.7400,3728
6.7420,2800
6.7440,1328
6.7460,1616
6.7480,1696
6.7500,4305
6.7520,6017
6.7540,7105
6.7560,13027
6.7580,1152
6.7600,8770
6.7620,10754
6.7640,2736
6.7660,2016
6.7680,6785
6.7700,3456
6.7720,1824
6.7740,4497
6.7760,1168
6.7780,4097
6.7800,12323
6.7820,8642
6.7840,1504
6.7860,3216
6.7880,1856
6.7900,6241
6.7920,3664
6.7940,7441
6.7960,5329
6.7980,8498
6.8000,4817
6.8020,3440
6.8040,2160
6.8060,1424
6.8080,7617
6.8100,4177
6.8120,1360
6.8140,1504
6.8160,2880
6.8180,12883
6.8200,1744
6.8220,2208
6.8240,1888
6.8260,12851
6.8280,6833
6.8300,8226
6.8320,18100
6.8340,4833
6.8360,3648
6.8380,2944
6.8400,1584
6.8420,1360
6.8440,4481
6.8460,9730
6.8480,8850
6.8500,7217
6.8520,1632
6.8540,2816
6.8560,1296
6.8580,2592
6.8600,3344
6.8620,1792
6.8640,3760
6.8660,2720
6.8680,1632
6.8700,2480
6.8720,2096
6.8740,2848
6.8760,2224
6.8780,1856
6.8800,3376
6.8820,1616
6.8840,1808
6.8860,1968
6.8880,5617
6.8900,6065
6.8920,5777
6.8940,2592
6.8960,3120
6.8980,1952
6.9000,2128
6.9020,5921
6.9040,3728
6.9060,5409
6.9080,2880
6.9100,2688
6.9120,3264
6.9140,6593
6.9160,2336
6.9180,8770
6.9200,3120
6.9220,3008
6.9240,3808
6.9260,4481
6.9280,3088
6.9300,3552
6.9320,3376
6.9340,2640
6.9360,5169
6.9380,4032
6.9400,2320
6.9420,3648
6.9440,4897
6.9460,3760
6.9480,1328
6.9500,1248
6.9520,4064
6.9540,1808
6.9560,2544
6.9580,2304
6.9600,1872
6.9620,2016
6.9640,1872
6.9660,1840
6.9680,15379
6.9700,5649
6.9720,3280
6.9740,4000
6.9760,2928
6.9780,1440
6.9800,4289
6.9820,9698
6.9840,9346
6.9860,1440
6.9880,3728
6.9900,11170
6.9920,2816
6.9940,1488
6.9960,18388
6.9980,6465
7.0000,6433
7.0020,3072
7.0040,23221
7.0060,3296
7.0080,1568
7.0100,1840
7.0120,2576
7.0140,2224
7.0160,6705
7.0180,1184
7.0200,4193
7.0220,2144
7.0240,7937
7.0260,1104
7.0280,1856
7.0300,12995
7.0320,5377
7.0340,1504
7.0360,7169
7.0380,2368
7.0400,6065
7.0420,4529
7.0440,2080
7.0460,3136
7.0480,1920
7.0500,5953
7.0520,3328
7.0540,1584
7.0560,3152
7.0580,4913
7.0600,23189
7.0620,1712
7.0640,6241
7.0660,1664
7.0680,1520
7.0700,7921
7.0720,4545
7.0740,2896
7.0760,5457
7.0780,10258
7.0800,1376
7.0820,19636
7.0840,12771
7.0860,1600
7.0880,9314
7.0900,3728
7.0920,6753
7.0940,2464
7.0960,2240
7.0980,11762
7.1000,9938
7.1020,1632
7.1040,2896
7.1060,2288
7.1080,1520
7.1100,1680
7.1120,8514
7.1140,2080
7.1160,1888
7.1180,2096
7.1200,1184
7.1220,3024
7.1240,9010
7.1260,3760
7.1280,7233
7.1300,4016
7.1320,10642
7.1340,23237
7.1360,1712
7.1380,6049
7.1400,2240
7.1420,5329
7.1440,2000
7.1460,8594
7.1480,10530
7.1500,2256
7.1520,5201
7.1540,2528
7.1560,6065
7.1580,6033
7.1600,4401
7.1620,1840
7.1640,7921
7.1660,1792
7.1680,3600
7.1700,11026
7.1720,8818
7.1740,8290
7.1760,1504
7.1780,2720
7.1800,3248
7.1820,7089
7.1840,2592
7.1860,2192
7.1880,15539
7.1900,4417
7.1920,1536
7.1940,9154
7.1960,1472
7.1980,1520
7.2000,3008
7.2020,1744
7.2040,3376
7.2060,3424
7.2080,1760
7.2100,1824
7.2120,3136
7.2140,1728
7.2160,1920
7.2180,2384
7.2200,9026
7.2220,2832
7.2240,7473
7.2260,15363
7.2280,8161
7.2300,6353
7.2320,4129
7.2340,3232
7.2360,1792
7.2380,10770
7.2400,3088
7.2420,1984
7.2440,3280
7.2460,28054
7.2480,11650
7.2500,3264
7.2520,5857
7.2540,1856
7.2560,2160
7.2580,8562
7.2600,1808
7.2620,9794
7.2640,5681
7.2660,3744
7.2680,3776
7.2700,6817
7.2720,11650
7.2740,5649
7.2760,13779
7.2780,15059
7.2800,2816
7.2820,21189
7.2840,5265
7.2860,1424
7.2880,18356
7.2900,6225
7.2920,1536
7.2940,2144
7.2960,12947
7.2980,1888
7.3000,2448
7.3020,4369
7.3040,5425
7.3060,1968
7.3080,13459
7.3100,17556
7.3120,11906
7.3140,10274
7.3160,5169
7.3180,3840
7.3200,5889
7.3220,1216
7.3240,15299
7.3260,11762
7.3280,5329
7.3300,1856
7.3320,9106
7.3340,6049
7.3360,2768
7.3380,15107
7.3400,1648
7.3420,8930
7.3440,9042
7.3460,3408
7.3480,2512
7.3500,14915
7.3520,3104
7.3540,18580
7.3560,1696
7.3580,1696
7.3600,1296
7.3620,7729
7.3640,4369
7.3660,3344
7.3680,7217
7.3700,7361
7.3720,5281
7.3740,4753
7.3760,2192
7.3780,2608
7.3800,4193
7.3820,16420
7.3840,15507
7.3860,3456
7.3880,2192
7.3900,3808
7.3920,15283
7.3940,9282
7.3960,1792
7.3980,16932
7.4000,6145
7.4020,4161
7.4040,20853
7.4060,20196
7.4080,4401
7.4100,4849
7.4120,20869
7.4140,8754
7.4160,2256
7.4180,1888
7.4200,2080
7.4220,7377
7.4240,2752
7.4260,1712
7.4280,2064
7.4300,5601
7.4320,3456
7.4340,1664
7.4360,11186
7.4380,14483
7.4400,2880
7.4420,7569
7.4440,12258
7.4460,2288
7.4480,5665
7.4500,1456
7.4520,1120
7.4540,8194
7.4560,1472
7.4580,7521
7.4600,9234
7.4620,17940
7.4640,10578
7.4660,2432
7.4680,1568
7.4700,13219
7.4720,3232
7.4740,20661
7.4760,6225
7.4780,12531
7.4800,9762
7.4820,16179
7.4840,21413
7.4860,10642
7.4880,11762
7.4900,8738
7.4920,9154
7.4940,2224
7.4960,1824
7.4980,2576
7.5000,6977
7.5020,5185
7.5040,1984
7.5060,1808
7.5080,8418
7.5100,2256
7.5120,2192
7.5140,6977
7.5160,1696
7.5180,8210
7.5200,40729
7.5220,31431
7.5240,12387
7.5260,5905
7.5280,4129
7.5300,4369
7.5320,20581
7.5340,12291
7.5360,5713
7.5380,6673
7.5400,10578
7.5420,18756
7.5440,5281
7.5460,8450
7.5480,32679
7.5500,15651
7.5520,4177
7.5540,10370
7.5560,3712
7.5580,8113
7.5600,9394
7.5620,3072
7.5640,18324
7.5660,12771
7.5680,3920
7.5700,1936
7.5720,17476
7.5740,4673
7.5760,18436
7.5780,27542
7.5800,14851
7.5820,5313
7.5840,2048
7.5860,7105
7.5880,17124
7.5900,12082
7.5920,5633
7.5940,22661
7.5960,14243
7.5980,4129
7.6000,11202
7.6020,7041
7.6040,1120
7.6060,2320
7.6080,15635
7.6100,1024
7.6120,10162
7.6140,17892
7.6160,1168
7.6180,14659
7.6200,35208
7.6220,1792
7.6240,16852
7.6260,1552
7.6280,16964
7.6300,16660
7.6320,10562
7.6340,14451
7.6360,10466
7.6380,4225
7.6400,6817
7.6420,7873
7.6440,2048
7.6460,6529
7.6480,9650
7.6500,2272
7.6520,18900
7.6540,11746
7.6560,4865
7.6580,10962
7.6600,14755
7.6620,2464
7.6640,1376
7.6660,14515
7.6680,17876
7.6700,15075
7.6720,8226
7.6740,41578
7.6760,2640
7.6780,20372
7.6800,26950
7.6820,20613
7.6840,17924
7.6860,16532
7.6880,13443
7.6900,2992
7.6920,18596
7.6940,15667
7.6960,6401
7.6980,2384
7.7000,12355
7.7020,2464
7.7040,3632
7.7060,6945
7.7080,11458
7.7100,4769
7.7120,16980
7.7140,1216
7.7160,19924
7.7180,3408
7.7200,27926
7.7220,14947
7.7240,8242
7.7260,3472
7.7280,2288
7.7300,4016
7.7320,4385
7.7340,2400
7.7360,4545
7.7380,2592
7.7400,12883
7.7420,1712
7.7440,5185
7.7460,2720
7.7480,1664
7.7500,4529
7.7520,3776
7.7540,17860
7.7560,13603
7.7580,10386
7.7600,26486
7.7620,22757
7.7640,3856
7.7660,5121
7.7680,1424
7.7700,3024
7.7720,2816
7.7740,16051
7.7760,6273
7.7780,16788
7.7800,13187
7.7820,4241
7.7840,27926
7.7860,7617
7.7880,3984
7.7900,22725
7.7920,1984
7.7940,2128
7.7960,9234
7.7980,1536
7.8000,11778
7.8020,18180
7.8040,4577
7.8060,2960
7.8080,15043
7.8100,19764
7.8120,4689
7.8140,15667
7.8160,2048
7.8180,5297
7.8200,11570
7.8220,1248
7.8240,2592
7.8260,12851
7.8280,11442
7.8300,8177
7.8320,7153
7.8340,2000
7.8360,10690
7.8380,18276
7.8400,8658
7.8420,17908
7.8440,12162
7.8460,19668
7.8480,2656
7.8500,27558
7.8520,52860
7.8540,10418
7.8560,5681
7.8580,1472
7.8600,2832
7.8620,21701
7.8640,16388
7.8660,9026
7.8680,13347
7.8700,21925
7.8720,10034
7.8740,4257
7.8760,15203
7.8780,19748
7.8800,8674
7.8820,2240
7.8840,6001
7.8860,37225
7.8880,21829
7.8900,22997
7.8920,1808
7.8940,2176
7.8960,11570
7.8980,1936
7.9000,3040
7.9020,3888
7.9040,1616
7.9060,16147
7.9080,2080
7.9100,7233
7.9120,5505
7.9140,18452
7.9160,6353
7.9180,3888
7.9200,1328
7.9220,4064
7.9240,4785
7.9260,2656
7.9280,1584
7.9300,16291
7.9320,1984
7.9340,1584
7.9360,6065
7.9380,4769
7.9400,20020
7.9420,1280
7.9440,3424
7.9460,4993
7.9480,35000
7.9500,2080
7.9520,9826
7.9540,12787
7.9560,13315
7.9580,40713
7.9600,2112
7.9620,1232
7.9640,1680
7.9660,10658
7.9680,3984
7.9700,7681
7.9720,4064
7.9740,16564
7.9760,21733
7.9780,2144
7.9800,4513
7.9820,1888
7.9840,34008
7.9860,2208
7.9880,1856
7.9900,13475
7.9920,8177
7.9940,46507
7.9960,3488
7.9980,22869
8.0000,2080
8.0020,1952
8.0040,18644
8.0060,28518
8.0080,25558
8.0100,13779
8.0120,38025
8.0140,21125
8.0160,15651
8.0180,21077
8.0200,1968
8.0220,8850
8.0240,3536
8.0260,1584
8.0280,13267
8.0300,13859
8.0320,21061
8.0340,14211
8.0360,26582
8.0380,13299
8.0400,19668
8.0420,17988
8.0440,15523
8.0460,6065
8.0480,2464
8.0500,1792
8.0520,1712
8.0540,14307
8.0560,12691
8.0580,2432
8.0600,4097
8.0620,1248
8.0640,1840
8.0660,14659
8.0680,20068
8.0700,9858
8.0720,1744
8.0740,5969
8.0760,10706
8.0780,8482
8.0800,1936
8.0820,10754
8.0840,11778
8.0860,2768
8.0880,9362
8.0900,2688
8.0920,13523
8.0940,2544
8.0960,1296
8.0980,18436
8.1000,1600
8.1020,14627
8.1040,8994
8.1060,10978
8.1080,2576
8.1100,9730
8.1120,12899
8.1140,17988
8.1160,3280
8.1180,16195
8.1200,1792
8.1220,10114
8.1240,21637
8.1260,7425
8.1280,19268
8.1300,3776
8.1320,5265
8.1340,24614
8.1360,1488
8.1380,3792
8.1400,1680
8.1420,11010
8.1440,12595
8.1460,1264
8.1480,16003
8.1500,8578
8.1520,6241
8.1540,1840
8.1560,2032
8.1580,17892
8.1600,4449
8.1620,19300
8.1640,9538
8.1660,11330
8.1680,27190
8.1700,8546
8.1720,25350
8.1740,1616
8.1760,7345
8.1780,1728
8.1800,18228
8.1820,12435
8.1840,11138
8.1860,2496
8.1880,11906
8.1900,3552
8.1920,2944
8.1940,14355
8.1960,28166
8.1980,9890
8.2000,2752
8.2020,8722
8.2040,1872
8.2060,11106
8.2080,3536
8.2100,8194
8.2120,13667
8.2140,4305
8.2160,17380
8.2180,11762
8.2200,10594
8.2220,1680
8.2240,4801
8.2260,13331
8.2280,8738
8.2300,16227
8.2320,16420
8.2340,2384
8.2360,3552
8.2380,6417
8.2400,8177
8.2420,17828
8.2440,1584
8.2460,2352
8.2480,1888
8.2500,14931
8.2520,2064
8.2540,17412
8.2560,5313
8.2580,2384
8.2600,10002
8.2620,11922
8.2640,9842
8.2660,25398
8.2680,8210
8.2700,3920
8.2720,4016
8.2740,14403
8.2760,6625
8.2780,19812
8.2800,11426
8.2820,5121
8.2840,5585
8.2860,1824
8.2880,5121
8.2900,13219
8.2920,2576
8.2940,13267
8.2960,6017
8.2980,1680
8.3000,7041
8.3020,1920
8.3040,2912
8.3060,2560
8.3080,12146
8.3100,3776
8.3120,14147
8.3140,1936
8.3160,1744
8.3180,28198
8.3200,9234
8.3220,17588
8.3240,2144
8.3260,3520
8.3280,6849
8.3300,9346
8.3320,12242
8.3340,3856
8.3360,4113
8.3380,14243
8.3400,2896
8.3420,20100
8.3440,8097
8.3460,3024
8.3480,10418
8.3500,4193
8.3520,16692
8.3540,3776
8.3560,2736
8.3580,7793
8.3600,1728
8.3620,14019
8.3640,11058
8.3660,10434
8.3680,9138
8.3700,20036
8.3720,1552
8.3740,8482
8.3760,3744
8.3780,13523
8.3800,5537
8.3820,4865
8.3840,7601
8.3860,13491
8.3880,9122
8.3900,4145
8.3920,20869
8.3940,1824
8.3960,13891
8.3980,7633
8.4000,7089
8.4020,3776
8.4040,2352
8.4060,1632
8.4080,9122
8.4100,13619
8.4120,1968
8.4140,9170
8.4160,6113
8.4180,10178
8.4200,8930
8.4220,2752
8.4240,9010
8.4260,2048
8.4280,2464
8.4300,6465
8.4320,29319
8.4340,7473
8.4360,5297
8.4380,5825
8.4400,1600
8.4420,1920
8.4440,18068
8.4460,7473
8.4480,7729
8.4500,1328
8.4520,7185
8.4540,5089
8.4560,9010
8.4580,3520
8.4600,2656
8.4620,21477
8.4640,1360
8.4660,3904
8.4680,7489
8.4700,3904
8.4720,11666
8.4740,9218
8.4760,1856
8.4780,2720
8.4800,15795
8.4820,4257
8.4840,2192
8.4860,17492
8.4880,4529
8.4900,2864
8.4920,16355
8.4940,3856
8.4960,6929
8.4980,4401
8.5000,5041
8.5020,6993
8.5040,2864
8.5060,20485
8.5080,6785
8.5100,12178
8.5120,10594
8.5140,10498
8.5160,9026
8.5180,2912
8.5200,10322
8.5220,2368
8.5240,2384
8.5260,8290
8.5280,3344
8.5300,2176
8.5320,8177
8.5340,3008
8.5360,7169
8.5380,11202
8.5400,9746
8.5420,5793
8.5440,8402
8.5460,13123
8.5480,3040
8.5500,2656
8.5520,5137
8.5540,8882
8.5560,4913
8.5580,2176
8.5600,4177
8.5620,2048
8.5640,3552
8.5660,6689
8.5680,3280
8.5700,6529
8.5720,19300
8.5740,3040
8.5760,3200
8.5780,6785
8.5800,2848
8.5820,8546
8.5840,1840
8.5860,3568
8.5880,3760
8.5900,6609
8.5920,6577
8.5940,10162
8.5960,1424
8.5980,5713
8.6000,4016
8.6020,5073
8.6040,6609
8.6060,2064
8.6080,8786
8.6100,16612
8.6120,10722
8.6140,3760
8.6160,10642
8.6180,1952
8.6200,6817
8.6220,4145
8.6240,14803
8.6260,12995
8.6280,12242
8.6300,21301
8.6320,8194
8.6340,2896
8.6360,6881
8.6380,12002
8.6400,11874
8.6420,21605
8.6440,4609
8.6460,11010
8.6480,13859
8.6500,27318
8.6520,5425
8.6540,2896
8.6560,19860
8.6580,20084
8.6600,8978
8.6620,3136
8.6640,2608
8.6660,6721
8.6680,14259
8.6700,28470
8.6720,15971
8.6740,3728
8.6760,13507
8.6780,4000
8.6800,2368
8.6820,5585
8.6840,1824
8.6860,4481
8.6880,17748
8.6900,1456
8.6920,32519
8.6940,3536
8.6960,11650
8.6980,8065
8.7000,5697
8.7020,7073
8.7040,17332
8.7060,9762
8.7080,7569
8.7100,6433
8.7120,4577
8.7140,17076
8.7160,4097
8.7180,7345
8.7200,2832
8.7220,26070
8.7240,4193
8.7260,1376
8.7280,27942
8.7300,7521
8.7320,4705
8.7340,4897
8.7360,4080
8.7380,4689
8.7400,4097
8.7420,5761
8.7440,9058
8.7460,8994
8.7480,7713
8.7500,3248
8.7520,2832
8.7540,1952
8.7560,4785
8.7580,7121
8.7600,2384
8.7620,20468
8.7640,31191
8.7660,12627
8.7680,15747
8.7700,1664
8.7720,30695
8.7740,11602
8.7760,2592
8.7780,1664
8.7800,1664
8.7820,2624
8.7840,18004
8.7860,1920
8.7880,6145
8.7900,4993
8.7920,2384
8.7940,2528
8.7960,6817
8.7980,5073
8.8000,2992
8.8020,2048
8.8040,4177
8.8060,18564
8.8080,3280
8.8100,6097
8.8120,2448
8.8140,27958
8.8160,3248
8.8180,14787
8.8200,15939
8.8220,22885
8.8240,2400
8.8260,16468
8.8280,10946
8.8300,13699
8.8320,3856
8.8340,8177
8.8360,2624
8.8380,2608
8.8400,5633
8.8420,15155
8.8440,11234
8.8460,3632
8.8480,2144
8.8500,18196
8.8520,5713
8.8540,6337
8.8560,11314
8.8580,14403
8.8600,21109
8.8620,12419
8.8640,6705
8.8660,12371
8.8680,6977
8.8700,10626
8.8720,17556
8.8740,14483
8.8760,2448
8.8780,16259
8.8800,14819
8.8820,4097
8.8840,8161
8.8860,4897
8.8880,2944
8.8900,13155
8.8920,6177
8.8940,11922
8.8960,3840
8.8980,8177
8.9000,9698
8.9020,14467
8.9040,34984
8.9060,2160
8.9080,1680
8.9100,11602
8.9120,5553
8.9140,2768
8.9160,40345
8.9180,12178
8.9200,11810
8.9220,2000
8.9240,22069
8.9260,14659
8.9280,7201
8.9300,2064
8.9320,8530
8.9340,13763
8.9360,15411
8.9380,2336
8.9400,10258
8.9420,7729
8.9440,9378
8.9460,3408
8.9480,16804
8.9500,7217
8.9520,6961
8.9540,13587
8.9560,5713
8.9580,10658
8.9600,3152
8.9620,6481
8.9640,10978
8.9660,17236
8.9680,4257
8.9700,6289
8.9720,8129
8.9740,14067
8.9760,33896
8.9780,2192
8.9800,17092
8.9820,2480
8.9840,5345
8.9860,17300
8.9880,2432
8.9900,1280
8.9920,2784
8.9940,8001
8.9960,6017
8.9980,3904
9.0000,9026
9.0020,13267
9.0040,13299
9.0060,8017
9.0080,9810
9.0100,6225
9.0120,19572
9.0140,33976
9.0160,11538
9.0180,10194
9.0200,12659
9.0220,6945
9.0240,4337
9.0260,7585
9.0280,5553
9.0300,17956
9.0320,15347
9.0340,26214
9.0360,15891
9.0380,25622
9.0400,2864
9.0420,7105
9.0440,4801
9.0460,15955
9.0480,9426
9.0500,3328
9.0520,1360
9.0540,9090
9.0560,6193
9.0580,2608
9.0600,8177
9.0620,4945
9.0640,19620
9.0660,21061
9.0680,4513
9.0700,8514
9.0720,6817
9.0740,1328
9.0760,6401
9.0780,7697
9.0800,4705
9.0820,1440
9.0840,14019
9.0860,6065
9.0880,6817
9.0900,20629
9.0920,24149
9.0940,4369
9.0960,3456
9.0980,14483
9.1000,3232
9.1020,8930
9.1040,18724
9.1060,7697
9.1080,9362
9.1100,8994
9.1120,4113
9.1140,5761
9.1160,5713
9.1180,1216
9.1200,5297
9.1220,5617
9.1240,16484
9.1260,2976
9.1280,2272
9.1300,7585
9.1320,19396
9.1340,6497
9.1360,7697
9.1380,3232
9.1400,2624
9.1420,25526
9.1440,7761
9.1460,20420
9.1480,1712
9.1500,12387
9.1520,16868
9.1540,4641
9.1560,1280
9.1580,26342
9.1600,3584
9.1620,11522
9.1640,13187
9.1660,4353
9.1680,8514
9.1700,34184
9.1720,8177
9.1740,13443
9.1760,9170
9.1780,2720
9.1800,13347
9.1820,4881
9.1840,2192
9.1860,2192
9.1880,3152
9.1900,7057
9.1920,10018
9.1940,2576
9.1960,7729
9.1980,1600
9.2000,3472
9.2020,2736
9.2040,29335
9.2060,4433
9.2080,5601
9.2100,27222
9.2120,7553
9.2140,37769
9.2160,6241
9.2180,15907
9.2200,2832
9.2220,1568
9.2240,7057
9.2260,14627
9.2280,1968
9.2300,5009
9.2320,34152
9.2340,8113
9.2360,2016
9.2380,10434
9.2400,10162
9.2420,1664
9.2440,12611
9.2460,9442
9.2480,16115
9.2500,24966
9.2520,5185
9.2540,8177
9.2560,1344
9.2580,3296
9.2600,13907
9.2620,1200
9.2640,9362
9.2660,2432
9.2680,12771
9.2700,33352
9.2720,2048
9.2740,17684
9.2760,12531
9.2780,3616
9.2800,11874
9.2820,2192
9.2840,10578
9.2860,10562
9.2880,10722
9.2900,2224
9.2920,13811
9.2940,19812
9.2960,3856
9.2980,44954
9.3000,15955
9.3020,12995
9.3040,2304
9.3060,13555
9.3080,1728
9.3100,1920
9.3120,7713
9.3140,7937
9.3160,10962
9.3180,2336
9.3200,6993
9.3220,12066
9.3240,2752
9.3260,2736
9.3280,5505
9.3300,14035
9.3320,2640
9.3340,2064
9.3360,2240
9.3380,11730
9.3400,20709
9.3420,14531
9.3440,3232
9.3460,17764
9.3480,6289
9.3500,1440
9.3520,1600
9.3540,14643
9.3560,2208
9.3580,12274
9.3600,2656
9.3620,5281
9.3640,2064
9.3660,11602
9.3680,12178
9.3700,42954
9.3720,1296
9.3740,5409
9.3760,6177
9.3780,2192
9.3800,2912
9.3820,11106
9.3840,6993
9.3860,11474
9.3880,14147
9.3900,12034
9.3920,3328
9.3940,3472
9.3960,4945
9.3980,1776
9.4000,12547
9.4020,3792
9.4040,4577
9.4060,1824
9.4080,8930
9.4100,22165
9.4120,2528
9.4140,20036
9.4160,15283
9.4180,6529
9.4200,2208
9.4220,1408
9.4240,10082
9.4260,8690
9.4280,4000
9.4300,7089
9.4320,9314
9.4340,1856
9.4360,11186
9.4380,12851
9.4400,21269
9.4420,25190
9.4440,7265
9.4460,2224
9.4480,8514
9.4500,4321
9.4520,24966
9.4540,4353
9.4560,1040
9.4580,4321
9.4600,1504
9.4620,4097
9.4640,23749
9.4660,15763
9.4680,13363
9.4700,24229
9.4720,7649
9.4740,3904
9.4760,8930
9.4780,1456
9.4800,1248
9.4820,4401
9.4840,2592
9.4860,17348
9.4880,10626
9.4900,5697
9.4920,1728
9.4940,8097
9.4960,6865
9.4980,1760
9.5000,20020
9.5020,13971
9.5040,4000
9.5060,9170
9.5080,3136
9.5100,1568
9.5120,2640
9.5140,9090
9.5160,12082
9.5180,5121
9.5200,11442
9.5220,8177
9.5240,2256
9.5260,6209
9.5280,2896
9.5300,1504
9.5320,2992
9.5340,6673
9.5360,3536
9.5380,11858
9.5400,5265
9.5420,1424
9.5440,9282
9.5460,18388
9.5480,13571
9.5500,1888
9.5520,3904
9.5540,3872
9.5560,1808
9.5580,1488
9.5600,4369
9.5620,1488
9.5640,5505
9.5660,2128
9.5680,2992
9.5700,4961
9.5720,1760
9.5740,2304
9.5760,21781
9.5780,1408
9.5800,4865
9.5820,21525
9.5840,6433
9.5860,1744
9.5880,6065
9.5900,12499
9.5920,10994
9.5940,4561
9.5960,11762
9.5980,2400
9.6000,2112
9.6020,26070
9.6040,1680
9.6060,3344
9.6080,5953
9.6100,3024
9.6120,3760
9.6140,18068
9.6160,2256
9.6180,3856
9.6200,2048
9.6220,3840
9.6240,1712
9.6260,3008
9.6280,5217
9.6300,7985
9.6320,4641
9.6340,1408
9.6360,13827
9.6380,5457
9.6400,3408
9.6420,5809
9.6440,7633
9.6460,2256
9.6480,6113
9.6500,1568
9.6520,6529
9.6540,9106
9.6560,1568
9.6580,2176
9.6600,2592
9.6620,1424
9.6640,8850
9.6660,8402
9.6680,10594
9.6700,2144
9.6720,6065
9.6740,6401
9.6760,10722
9.6780,6033
9.6800,15043
9.6820,15459
9.6840,1808
9.6860,2080
9.6880,1888
9.6900,1712
9.6920,16147
9.6940,30983
9.6960,2176
9.6980,2944
9.7000,13507
9.7020,4945
9.7040,1760
9.7060,10402
9.7080,7985
9.7100,11314
9.7120,5905
9.7140,10178
9.7160,2976
9.7180,2080
9.7200,2528
9.7220,2688
9.7240,2880
9.7260,2144
9.7280,14691
9.7300,1968
9.7320,1600
9.7340,12034
9.7360,5649
9.7380,3600
9.7400,14035
9.7420,2448
9.7440,6913
9.7460,7249
9.7480,22165
9.7500,2528
9.7520,1824
9.7540,13011
9.7560,7041
9.7580,11474
9.7600,7041
9.7620,10994
9.7640,2256
9.7660,14227
9.7680,2048
9.7700,5761
9.7720,2480
9.7740,10530
9.7760,1744
9.7780,1536
9.7800,25318
9.7820,3552
9.7840,13171
9.7860,3792
9.7880,1536
9.7900,5601
9.7920,9250
9.7940,1584
9.7960,1760
9.7980,6577
9.8000,3584
9.8020,14739
9.8040,2592
9.8060,12627
9.8080,2608
9.8100,22069
9.8120,16788
9.8140,3328
9.8160,9458
9.8180,2528
9.8200,19460
9.8220,2384
9.8240,1936
9.8260,2800
9.8280,10898
9.8300,21525
9.8320,1456
9.8340,20036
9.8360,9154
9.8380,1872
9.8400,11554
9.8420,4032
9.8440,6417
9.8460,2512
9.8480,6753
9.8500,11106
9.8520,31095
9.8540,14931
9.8560,3280
9.8580,1888
9.8600,2976
9.8620,2624
9.8640,7185
9.8660,39801
9.8680,5313
9.8700,1552
9.8720,4321
9.8740,7905
9.8760,9154
9.8780,2080
9.8800,1760
9.8820,20613
9.8840,7505
9.8860,5377
9.8880,1696
9.8900,20677
9.8920,1360
9.8940,10402
9.8960,11714
9.8980,5537
9.9000,25286
9.9020,3488
9.9040,6881
9.9060,6753
9.9080,5009
9.9100,19108
9.9120,9666
9.9140,29863
9.9160,4689
9.9180,1712
9.9200,7425
9.9220,11714
9.9240,11058
9.9260,2704
9.9280,6273
9.9300,5041
9.9320,1360
9.9340,18260
9.9360,2448
9.9380,9186
9.9400,1568
9.9420,21925
9.9440,2240
9.9460,1600
9.9480,33208
9.9500,1872
9.9520,2176
9.9540,1696
9.9560,11042
9.9580,7009
9.9600,2464
9.9620,1936
9.9640,4097
9.9660,7489
9.9680,4385
9.9700,2992
9.9720,7809
9.9740,8738
9.9760,14547
9.9780,10466
9.9800,2656
9.9820,11426
9.9840,8578
9.9860,2048
9.9880,8466
9.9900,6849
9.9920,8898
9.9940,3936
9.9960,15139
9.9980,5153
10.0000,1136
10.0020,34968
10.0040,12963
10.0060,8354
10.0080,15235
10.0100,2816
10.0120,3808
10.0140,3856
10.0160,3552
10.0180,2928
10.0200,5809
10.0220,2192
10.0240,8722
10.0260,2176
10.0280,1552
10.0300,3216
10.0320,2992
10.0340,38537
10.0360,29367
10.0380,13971
10.0400,17284
10.0420,13203
10.0440,1200
10.0460,2352
10.0480,3248
10.0500,10898
10.0520,3808
10.0540,16516
10.0560,16740
10.0580,13011
10.0600,2080
10.0620,7105
10.0640,5793
10.0660,4032
10.0680,11490
10.0700,3120
10.0720,3168
10.0740,8690
10.0760,5217
10.0780,23093
10.0800,17348
10.0820,12627
10.0840,3632
10.0860,14947
10.0880,3600
10.0900,7809
10.0920,6273
10.0940,3568
10.0960,8994
10.0980,3008
10.1000,2096
10.1020,9026
10.1040,6753
10.1060,20565
10.1080,8850
10.1100,2512
10.1120,2144
10.1140,4177
10.1160,4193
10.1180,1536
10.1200,9986
10.1220,3920
10.1240,5201
10.1260,5649
10.1280,1840
10.1300,9810
10.1320,11842
10.1340,10978
10.1360,8466
10.1380,18692
10.1400,6033
10.1420,18340
10.1440,9698
10.1460,1824
10.1480,6449
10.1500,16404
10.1520,4064
10.1540,1680
10.1560,2304
10.1580,5345
10.1600,12963
10.1620,7121
10.1640,5521
10.1660,10546
10.1680,7681
10.1700,11714
10.1720,17668
10.1740,16836
10.1760,2560
10.1780,10706
10.1800,3024
10.1820,9570
10.1840,22501
10.1860,4705
10.1880,4032
10.1900,1696
10.1920,2176
10.1940,17316
10.1960,17268
10.1980,11074
10.2000,5601
10.2020,4177
10.2040,6609
10.2060,8322
10.2080,2272
10.2100,1632
10.2120,2976
10.2140,5201
10.2160,7393
10.2180,14019
10.2200,6785
10.2220,17556
10.2240,12451
10.2260,2912
10.2280,1376
10.2300,1920
10.2320,11330
10.2340,4545
10.2360,3200
10.2380,9730
10.2400,1824
10.2420,3808
10.2440,14019
10.2460,8354
10.2480,2528
10.2500,6465
10.2520,15891
10.2540,7313
10.2560,6737
10.2580,8962
10.2600,1600
10.2620,7825
10.2640,4048
10.2660,17108
10.2680,11778
10.2700,20501
10.2720,11874
10.2740,3392
10.2760,2624
10.2780,2832
10.2800,10290
10.2820,1504
10.2840,22485
10.2860,5361
10.2880,4833
10.2900,18164
10.2920,5473
10.2940,2128
10.2960,11154
10.2980,9618
10.3000,12563
10.3020,11538
10.3040,9010
10.3060,2608
10.3080,1248
10.3100,3216
10.3120,16660
10.3140,1696
10.3160,1376
10.3180,2352
10.3200,1888
10.3220,5265
10.3240,2528
10.3260,2960
10.3280,4785
10.3300,1344
10.3320,8530
10.3340,14291
10.3360,2096
10.3380,11138
10.3400,4064
10.3420,3328
10.3440,2432
10.3460,3872
10.3480,6865
10.3500,1440
10.3520,2640
10.3540,8834
10.3560,2656
10.3580,4785
10.3600,2064
10.3620,4048
10.3640,2128
10.3660,2256
10.3680,3040
10.3700,1616
10.3720,3712
10.3740,1520
10.3760,1936
10.3780,2608
10.3800,1680
10.3820,1632
10.3840,6993
10.3860,2480
10.3880,10706
10.3900,23349
10.3920,3152
10.3940,8033
10.3960,1104
10.3980,2736
10.4000,3296
10.4020,2144
10.4040,2448
10.4060,1536
10.4080,2960
10.4100,4289
10.4120,1712
10.4140,3168
10.4160,1408
10.4180,2480
10.4200,1552
10.4220,3408
10.4240,1216
10.4260,2864
10.4280,1920
10.4300,1760
10.4320,1392
10.4340,2112
10.4360,3200
10.4380,3808
10.4400,1680
10.4420,5345
10.4440,2304
10.4460,11042
10.4480,7217
10.4500,1072
10.4520,1600
10.4540,1392
10.4560,944
10.4580,2240
10.4600,1760
10.4620,3360
10.4640,1504
10.4660,7153
10.4680,1872
10.4700,6929
10.4720,2800
10.4740,1456
10.4760,4657
10.4780,4657
10.4800,1680
10.4820,2592
10.4840,2560
10.4860,1712
10.4880,5073
10.4900,10626
10.4920,2224
10.4940,23189
10.4960,1088
10.4980,976
10.5000,1488
10.5020,2016
10.5040,4641
10.5060,6385
10.5080,4241
10.5100,12194
10.5120,1856
10.5140,7713
10.5160,5889
10.5180,7649
10.5200,2688
10.5220,4193
10.5240,1216
10.5260,3456
10.5280,2480
10.5300,2448
10.5320,1936
10.5340,2112
10.5360,1296
10.5380,1344
10.5400,2560
10.5420,7441
10.5440,3632
10.5460,2096
10.5480,1632
10.5500,3232
10.5520,2480
10.5540,1520
10.5560,3456
10.5580,2864
10.5600,2480
10.5620,2080
10.5640,1376
10.5660,1616
10.5680,3424
10.5700,3168
10.5720,1248
10.5740,1856
10.5760,3168
10.5780,4032
10.5800,1360
10.5820,4129
10.5840,13203
10.5860,1840
10.5880,3072
10.5900,1584
10.5920,1216
10.5940,3296
10.5960,1952
10.5980,1408
10.6000,704
10.6020,1456
10.6040,2064
10.6060,4929
10.6080,4961
10.6100,1408
10.6120,1472
10.6140,9234
10.6160,16884
10.6180,5777
10.6200,2000
10.6220,10962
10.6240,1552
10.6260,2272
10.6280,1392
10.6300,2368
10.6320,1760
10.6340,1616
10.6360,2272
10.6380,2464
10.6400,1616
10.6420,1504
10.6440,1600
10.6460,3152
10.6480,1712
10.6500,3664
10.6520,3440
10.6540,1584
10.6560,1824
10.6580,2096
10.6600,1360
10.6620,1584
10.6640,1200
10.6660,1488
10.6680,1536
10.6700,1792
10.6720,1856
10.6740,1376
10.6760,1152
10.6780,4064
10.6800,1040
10.6820,1072
10.6840,3072
10.6860,1040
10.6880,1536
10.6900,1600
10.6920,5521
10.6940,2432
10.6960,1360
10.6980,1776
10.7000,2400
10.7020,2272
10.7040,1280
10.7060,1584
10.7080,1664
10.7100,1328
10.7120,17060
10.7140,13043
10.7160,2496
10.7180,1040
10.7200,1824
10.7220,1472
10.7240,2512
10.7260,7889
10.7280,4048
10.7300,3568
10.7320,2048
10.7340,3824
10.7360,1936
10.7380,1824
10.7400,5889
10.7420,2288
10.7440,1104
10.7460,1168
10.7480,1600
10.7500,4241
10.7520,4305
10.7540,1184
10.7560,1744
10.7580,1728
10.7600,1312
10.7620,4673
10.7640,1712
10.7660,2192
10.7680,1744
10.7700,1312
10.7720,1616
10.7740,2832
10.7760,1312
10.7780,1472
10.7800,1872
10.7820,1440
10.7840,1056
10.7860,1232
10.7880,1392
10.7900,1328
10.7920,4577
10.7940,7649
10.7960,1472
10.7980,2304
10.8000,3408
10.8020,1296
10.8040,2976
10.8060,2208
10.8080,3168
10.8100,1152
10.8120,2272
10.8140,4833
10.8160,9858
10.8180,10002
10.8200,6609
10.8220,7505
10.8240,7025
10.8260,8930
10.8280,3552
10.8300,1840
10.8320,6737
10.8340,1808
10.8360,9410
10.8380,11458
10.8400,1968
10.8420,1408
10.8440,1104
10.8460,1424
10.8480,1312
10.8500,1296
10.8520,1216
10.8540,1040
10.8560,2624
10.8580,1264
10.8600,1280
10.8620,2192
10.8640,1504
10.8660,1168
10.8680,1088
10.8700,1040
10.8720,2016
10.8740,1824
10.8760,1616
10.8780,1312
10.8800,1632
10.8820,1616
10.8840,1104
10.8860,1792
10.8880,1488
10.8900,1632
10.8920,5137
10.8940,1936
10.8960,2960
10.8980,1536
10.9000,1312
10.9020,1792
10.9040,2000
10.9060,1840
10.9080,1760
10.9100,2112
10.9120,3504
10.9140,1760
10.9160,1632
10.9180,1504
10.9200,2896
10.9220,2208
10.9240,8658
10.9260,2992
10.9280,2496
10.9300,1472
10.9320,1280
10.9340,1936
10.9360,1568
10.9380,11138
10.9400,3760
10.9420,1280
10.9440,2384
10.9460,2000
10.9480,1680
10.9500,1584
10.9520,2128
10.9540,4929
10.9560,9810
10.9580,1120
10.9600,2688
10.9620,1056
10.9640,1872
10.9660,1344
10.9680,1472
10.9700,1360
10.9720,1248
10.9740,1760
10.9760,1088
10.9780,11122
10.9800,3344
10.9820,1456
10.9840,1168
10.9860,2528
10.9880,1296
10.9900,2064
10.9920,2384
10.9940,1104
10.9960,2896
10.9980,1440
11.0000,2000
11.0020,1536
11.0040,2992
11.0060,1536
11.0080,1392
11.0100,1472
11.0120,1808
11.0140,1600
11.0160,2304
11.0180,1408
11.0200,1424
11.0220,4177
11.0240,1872
11.0260,896
11.0280,3840
11.0300,2912
11.0320,3808
11.0340,944
11.0360,1232
11.0380,1936
11.0400,1056
11.0420,10434
11.0440,11922
11.0460,1248
11.0480,1856
11.0500,1808
11.0520,1936
11.0540,2016
11.0560,944
11.0580,1312
11.0600,928
11.0620,5265
11.0640,4289
11.0660,1296
11.0680,1472
11.0700,2272
11.0720,1296
11.0740,1312
11.0760,1488
11.0780,1200
11.0800,2752
11.0820,1600
11.0840,2320
11.0860,1696
11.0880,3968
11.0900,1552
11.0920,1312
11.0940,1648
11.0960,2176
11.0980,1312
11.1000,1584
11.1020,1248
11.1040,5265
11.1060,1168
11.1080,1376
11.1100,1312
11.1120,1712
11.1140,1392
11.1160,7361
11.1180,4577
11.1200,2768
11.1220,1072
11.1240,1232
11.1260,1568
11.1280,1296
11.1300,1984
11.1320,1472
11.1340,1456
11.1360,1760
11.1380,1504
11.1400,1248
11.1420,1360
11.1440,928
11.1460,1920
11.1480,1568
11.1500,3760
11.1520,1632
11.1540,3808
11.1560,2144
11.1580,4833
11.1600,4625
11.1620,1520
11.1640,1328
11.1660,1776
11.1680,1568
11.1700,6689
11.1720,1072
11.1740,2128
11.1760,2672
11.1780,1344
11.1800,1536
11.1820,1552
11.1840,1520
11.1860,2336
11.1880,4817
11.1900,5633
11.1920,1616
11.1940,1456
11.1960,3616
11.1980,2048
11.2000,2768
11.2020,2112
11.2040,1152
11.2060,1296
11.2080,1584
11.2100,6257
11.2120,9890
11.2140,2384
11.2160,6209
11.2180,3456
11.2200,2448
11.2220,3152
11.2240,1760
11.2260,1072
11.2280,1296
11.2300,944
11.2320,1408
11.2340,1728
11.2360,1456
11.2380,1296
11.2400,6401
11.2420,1152
11.2440,1520
11.2460,1728
11.2480,1824
11.2500,1840
11.2520,992
11.2540,1056
11.2560,1072
11.2580,1712
11.2600,2256
11.2620,1296
11.2640,5217
11.2660,9010
11.2680,1856
11.2700,1136
11.2720,2080
11.2740,3440
11.2760,1360
11.2780,2752
11.2800,2976
11.2820,2912
11.2840,1200
11.2860,2288
11.2880,1184
11.2900,1152
11.2920,1184
11.2940,1200
11.2960,1040
11.2980,4785
11.3000,1824
11.3020,6417
11.3040,1744
11.3060,1104
11.3080,2560
11.3100,2064
11.3120,4016
11.3140,1616
11.3160,1264
11.3180,1536
11.3200,1504
11.3220,1408
11.3240,1616
11.3260,1232
11.3280,1936
11.3300,1408
11.3320,1296
11.3340,6273
11.3360,4032
11.3380,928
11.3400,1504
11.3420,6289
11.3440,4657
11.3460,1328
11.3480,2112
11.3500,1344
11.3520,1536
11.3540,2224
11.3560,2640
11.3580,1216
11.3600,1472
11.3620,1872
11.3640,1568
11.3660,1216
11.3680,1504
11.3700,7745
11.3720,4993
11.3740,1312
11.3760,13091
11.3780,7697
11.3800,2128
11.3820,1504
11.3840,1696
11.3860,2128
11.3880,1424
11.3900,1168
11.3920,1072
11.3940,4080
11.3960,1424
11.3980,2080
11.4000,1648
11.4020,4529
11.4040,1904
11.4060,2096
11.4080,1296
11.4100,1104
11.4120,1456
11.4140,1104
11.4160,1728
11.4180,1584
11.4200,1504
11.4220,1168
11.4240,1024
11.4260,1072
11.4280,1552
11.4300,1536
11.4320,1744
11.4340,1584
11.4360,1504
11.4380,1632
11.4400,1248
11.4420,928
11.4440,2912
11.4460,4369
11.4480,1280
11.4500,2560
11.4520,3104
11.4540,1040
11.4560,1136
11.4580,1056
11.4600,1056
11.4620,1328
11.4640,1104
11.4660,2224
11.4680,1440
11.4700,5665
11.4720,5089
11.4740,2560
11.4760,2112
11.4780,1536
11.4800,2480
11.4820,2080
11.4840,1632
11.4860,1600
11.4880,1136
11.4900,1376
11.4920,1472
11.4940,1312
11.4960,1056
11.4980,1552
11.5000,1504
11.5020,1536
11.5040,992
11.5060,1552
11.5080,1664
11.5100,1296
11.5120,1488
11.5140,1280
11.5160,5249
11.5180,1456
11.5200,1152
11.5220,1056
11.5240,1872
11.5260,2736
11.5280,1280
11.5300,1888
11.5320,2656
11.5340,1344
11.5360,1472
11.5380,3088
11.5400,992
11.5420,1008
11.5440,1184
11.5460,1200
11.5480,2480
11.5500,3888
11.5520,2576
11.5540,1440
11.5560,1488
11.5580,992
11.5600,1472
11.5620,784
11.5640,992
11.5660,1120
11.5680,1440
11.5700,2320
11.5720,1200
11.5740,1424
11.5760,1168
11.5780,1728
11.5800,1376
11.5820,1216
11.5840,1680
11.5860,1424
11.5880,1376
11.5900,2048
11.5920,1344
11.5940,2080
11.5960,1504
11.5980,1136
11.6000,2304
11.6020,3552
11.6040,1568
11.6060,1200
11.6080,2192
11.6100,1344
11.6120,3424
11.6140,1232
11.6160,2096
11.6180,1872
11.6200,1152
11.6220,1040
11.6240,1040
11.6260,1776
11.6280,1536
11.6300,1408
11.6320,2000
11.6340,2768
11.6360,1424
11.6380,1184
11.6400,896
11.6420,1104
11.6440,1104
11.6460,1200
11.6480,1296
11.6500,1312
11.6520,960
11.6540,1376
11.6560,3632
11.6580,1488
11.6600,1584
11.6620,2528
11.6640,6657
11.6660,1024
11.6680,944
11.6700,1616
11.6720,1456
11.6740,1328
11.6760,1200
11.6780,960
11.6800,1408
11.6820,2384
11.6840,1184
11.6860,2192
11.6880,1616
11.6900,1584
11.6920,1200
11.6940,1488
11.6960,1248
11.6980,8498
11.7000,10434
11.7020,2256
11.7040,1056
11.7060,1344
11.7080,1248
11.7100,1264
11.7120,1376
11.7140,1088
11.7160,1760
11.7180,1104
11.7200,976
11.7220,1088
11.7240,1888
11.7260,1552
11.7280,1280
11.7300,1440
11.7320,2336
11.7340,1664
11.7360,1280
11.7380,1040
11.7400,1232
11.7420,5473
11.7440,2704
11.7460,1008
11.7480,1120
11.7500,1760
11.7520,7105
11.7540,3136
11.7560,2192
11.7580,2336
11.7600,1088
11.7620,1408
11.7640,1056
11.7660,1664
11.7680,1216
11.7700,1152
11.7720,1616
11.7740,1328
11.7760,1456
11.7780,1120
11.7800,1360
11.7820,2192
11.7840,1296
11.7860,960
11.7880,880
11.7900,1728
11.7920,1280
11.7940,4048
11.7960,2880
11.7980,1232
11.8000,1552
11.8020,2448
11.8040,1568
11.8060,1424
11.8080,2112
11.8100,2144
11.8120,1456
11.8140,1744
11.8160,1456
11.8180,2144
11.8200,1952
11.8220,1536
11.8240,1328
11.8260,1568
11.8280,944
11.8300,1152
11.8320,1440
11.8340,1984
11.8360,1504
11.8380,1488
11.8400,1040
11.8420,1424
11.8440,1104
11.8460,1424
11.8480,1456
11.8500,1488
11.8520,1424
11.8540,1680
11.8560,1536
11.8580,1344
11.8600,1040
11.8620,1024
11.8640,1872
11.8660,1472
11.8680,1808
11.8700,1408
11.8720,1712
11.8740,1040
11.8760,1568
11.8780,1632
11.8800,1280
11.8820,896
11.8840,1360
11.8860,1376
11.8880,1824
11.8900,1536
11.8920,1408
11.8940,6689
11.8960,2784
11.8980,1296
11.9000,1488
11.9020,1552
11.9040,1568
11.9060,2800
11.9080,3568
11.9100,1200
11.9120,1088
11.9140,1408
11.9160,2592
11.9180,1712
11.9200,2624
11.9220,1040
11.9240,1184
11.9260,5089
11.9280,6081
11.9300,1232
11.9320,1952
11.9340,1296
11.9360,1056
11.9380,1296
11.9400,1088
11.9420,1440
11.9440,1440
11.9460,1104
11.9480,1056
11.9500,1936
11.9520,1744
11.9540,1888
11.9560,1424
11.9580,2096
11.9600,1296
11.9620,1376
11.9640,1088
11.9660,1280
11.9680,1408
11.9700,1168
11.9720,1504
11.9740,3248
11.9760,1456
11.9780,1328
11.9800,1408
11.9820,1600
11.9840,1440
11.9860,1680
11.9880,1200
11.9900,1104
11.9920,1216
11.9940,1408
11.9960,1472
11.9980,1680
12.0000,1728
12.0020,1552
12.0040,4737
12.0060,2720
12.0080,4465
12.0100,2816
12.0120,1936
12.0140,1808
12.0160,1328
12.0180,2016
12.0200,1504
12.0220,1376
12.0240,1200
12.0260,1216
12.0280,1552
12.0300,1088
12.0320,2256
12.0340,1168
12.0360,2528
12.0380,1920
12.0400,1536
12.0420,1056
12.0440,1136
12.0460,1600
12.0480,976
12.0500,1888
12.0520,592
12.0540,1440
12.0560,1808
12.0580,1456
12.0600,1696
12.0620,1344
12.0640,1216
12.0660,1552
12.0680,1392
12.0700,2080
12.0720,2448
12.0740,1248
12.0760,1696
12.0780,1584
12.0800,1824
12.0820,1312
12.0840,1744
12.0860,3216
12.0880,3456
12.0900,1296
12.0920,2528
12.0940,1472
12.0960,1632
12.0980,1728
12.1000,1360
12.1020,1824
12.1040,1424
12.1060,944
12.1080,1152
12.1100,9506
12.1120,11570
12.1140,1040
12.1160,1680
12.1180,1488
12.1200,1344
12.1220,1360
12.1240,1344
12.1260,976
12.1280,1248
12.1300,1872
12.1320,1472
12.1340,1104
12.1360,3888
12.1380,3600
12.1400,1200
12.1420,1072
12.1440,1056
12.1460,1664
12.1480,1696
12.1500,2176
12.1520,1568
12.1540,992
12.1560,1120
12.1580,6689
12.1600,2176
12.1620,1824
12.1640,1344
12.1660,1088
12.1680,1488
12.1700,1856
12.1720,1456
12.1740,1376
12.1760,1152
12.1780,1376
12.1800,1712
12.1820,1184
12.1840,1440
12.1860,1136
12.1880,1760
12.1900,2896
12.1920,1600
12.1940,1632
12.1960,1296
12.1980,1936
12.2000,2080
12.2020,1520
12.2040,1344
12.2060,1200
12.2080,1440
12.2100,1216
12.2120,1328
12.2140,1200
12.2160,1488
12.2180,2544
12.2200,1152
12.2220,1232
12.2240,976
12.2260,944
12.2280,1600
12.2300,1648
12.2320,1056
12.2340,1312
12.2360,2096
12.2380,5697
12.2400,1344
12.2420,3312
12.2440,1648
12.2460,4161
12.2480,1152
12.2500,1888
12.2520,1472
12.2540,1376
12.2560,1024
12.2580,1200
12.2600,928
12.2620,1280
12.2640,1632
12.2660,1072
12.2680,1360
12.2700,848
12.2720,1712
12.2740,1344
12.2760,4977
12.2780,3312
12.2800,2272
12.2820,1232
12.2840,2816
12.2860,1568
12.2880,1840
12.2900,1680
12.2920,1360
12.2940,4113
12.2960,2368
12.2980,2896
12.3000,2768
12.3020,1712
12.3040,1376
12.3060,1552
12.3080,1024
12.3100,976
12.3120,1376
12.3140,1840
12.3160,1456
12.3180,1312
12.3200,4321
12.3220,2336
12.3240,1440
12.3260,2128
12.3280,7601
12.3300,3776
12.3320,1744
12.3340,2976
12.3360,2304
12.3380,1200
12.3400,1232
12.3420,896
12.3440,1504
12.3460,1232
12.3480,1792
12.3500,1424
12.3520,1568
12.3540,3408
12.3560,4769
12.3580,1488
12.3600,2320
12.3620,992
12.3640,1664
12.3660,3760
12.3680,2032
12.3700,1168
12.3720,1328
12.3740,1168
12.3760,1360
12.3780,1248
12.3800,1872
12.3820,1120
12.3840,1792
12.3860,1536
12.3880,928
12.3900,1056
12.3920,1280
12.3940,1344
12.3960,1408
12.3980,1424
12.4000,1808
12.4020,2080
12.4040,1504
12.4060,1376
12.4080,1536
12.4100,1168
12.4120,1424
12.4140,1200
12.4160,1312
12.4180,1280
12.4200,3360
12.4220,1120
12.4240,1888
12.4260,1328
12.4280,1664
12.4300,2144
12.4320,1568
12.4340,2144
12.4360,3744
12.4380,1552
12.4400,1296
12.4420,1632
12.4440,1568
12.4460,1216
12.4480,1296
12.4500,2080
12.4520,2896
12.4540,1776
12.4560,1440
12.4580,2704
12.4600,1536
12.4620,1344
12.4640,1088
12.4660,1360
12.4680,3264
12.4700,976
12.4720,1280
12.4740,1168
12.4760,1408
12.4780,1120
12.4800,1616
12.4820,1472
12.4840,1664
12.4860,1328
12.4880,1408
12.4900,1120
12.4920,1264
12.4940,1200
12.4960,3968
12.4980,1968
12.5000,1312
12.5020,1152
12.5040,3584
12.5060,1920
12.5080,1376
12.5100,1824
12.5120,1664
12.5140,1632
12.5160,1568
12.5180,1616
12.5200,1408
12.5220,1440
12.5240,1312
12.5260,1696
12.5280,1776
12.5300,2272
12.5320,1392
12.5340,1088
12.5360,1216
12.5380,1360
12.5400,7873
12.5420,3264
12.5440,1760
12.5460,1056
12.5480,1472
12.5500,1424
12.5520,4721
12.5540,2976
12.5560,1424
12.5580,1152
12.5600,1232
12.5620,1104
12.5640,2720
12.5660,2336
12.5680,1216
12.5700,1408
12.5720,1424
12.5740,1024
12.5760,1328
12.5780,1088
12.5800,1568
12.5820,1408
12.5840,1856
12.5860,1152
12.5880,1424
12.5900,2112
12.5920,1552
12.5940,1248
12.5960,1536
12.5980,1344
12.6000,1936
12.6020,1248
12.6040,1360
12.6060,928
12.6080,1216
12.6100,1568
12.6120,1280
12.6140,1072
12.6160,1744
12.6180,1296
12.6200,3296
12.6220,1344
12.6240,2272
12.6260,1104
12.6280,1168
12.6300,1648
12.6320,1024
12.6340,1728
12.6360,2256
12.6380,816
12.6400,1488
12.6420,976
12.6440,1200
12.6460,1680
12.6480,3600
12.6500,3120
12.6520,2976
12.6540,1936
12.6560,1696
12.6580,1504
12.6600,1760
12.6620,1056
12.6640,1344
12.6660,736
12.6680,1360
12.6700,1328
12.6720,1664
12.6740,1536
12.6760,1360
12.6780,1072
12.6800,1200
12.6820,1536
12.6840,1376
12.6860,992
12.6880,1360
12.6900,1296
12.6920,944
12.6940,1216
12.6960,1312
12.6980,2112
12.7000,2512
12.7020,2048
12.7040,2400
12.7060,2256
12.7080,992
12.7100,1536
12.7120,4032
12.7140,1328
12.7160,1488
12.7180,1600
12.7200,1728
12.7220,1376
12.7240,1200
12.7260,1552
12.7280,1056
12.7300,1408
12.7320,1920
12.7340,1328
12.7360,1104
12.7380,2864
12.7400,1184
12.7420,1184
12.7440,1296
12.7460,1168
12.7480,3408
12.7500,3840
12.7520,1552
12.7540,1024
12.7560,1200
12.7580,1344
12.7600,5473
12.7620,4032
12.7640,8354
12.7660,1968
12.7680,2208
12.7700,1248
12.7720,1504
12.7740,992
12.7760,1280
12.7780,1296
12.7800,1440
12.7820,1344
12.7840,1392
12.7860,1072
12.7880,3632
12.7900,1552
12.7920,1456
12.7940,1088
12.7960,1280
12.7980,1056
12.8000,1696
12.8020,1504
12.8040,2512
12.8060,14035
12.8080,11330
12.8100,1248
12.8120,2720
12.8140,1856
12.8160,1456
12.8180,3520
12.8200,3296
12.8220,2064
12.8240,2512
12.8260,5073
12.8280,5937
12.8300,944
12.8320,1568
12.8340,3296
12.8360,9442
12.8380,1552
12.8400,1744
12.8420,5505
12.8440,1488
12.8460,4401
12.8480,3648
12.8500,1664
12.8520,1248
12.8540,1872
12.8560,1824
12.8580,1488
12.8600,1152
12.8620,1584
12.8640,1280
12.8660,1808
12.8680,2176
12.8700,2208
12.8720,2000
12.8740,2416
12.8760,1680
12.8780,15059
12.8800,4705
12.8820,2064
12.8840,1824
12.8860,1408
12.8880,1456
12.8900,1440
12.8920,1360
12.8940,2064
12.8960,1440
12.8980,1280
12.9000,1744
12.9020,1520
12.9040,1552
12.9060,976
12.9080,1104
12.9100,1296
12.9120,1104
12.9140,848
12.9160,1584
12.9180,1200
12.9200,1520
12.9220,1408
12.9240,1088
12.9260,1888
12.9280,1152
12.9300,1840
12.9320,1328
12.9340,1760
12.9360,1376
12.9380,1184
12.9400,2432
12.9420,4657
12.9440,3040
12.9460,1664
12.9480,2736
12.9500,2320
12.9520,4497
12.9540,1296
12.9560,1328
12.9580,1264
12.9600,1568
12.9620,4593
12.9640,5249
12.9660,976
12.9680,2688
12.9700,1424
12.9720,1488
12.9740,1264
12.9760,1424
12.9780,1488
12.9800,1472
12.9820,3200
12.9840,1280
12.9860,1184
12.9880,2464
12.9900,1808
12.9920,1344
12.9940,1520
12.9960,1216
12.9980,1280
13.0000,1504
13.0020,1040
13.0040,1056
13.0060,1408
13.0080,6017
13.0100,11346
13.0120,1184
13.0140,2400
13.0160,1696
13.0180,1552
13.0200,1104
13.0220,1216
13.0240,1488
13.0260,1488
13.0280,1152
13.0300,1232
13.0320,1104
13.0340,1856
13.0360,2240
13.0380,1728
13.0400,1072
13.0420,5345
13.0440,2976
13.0460,1840
13.0480,1216
13.0500,2320
13.0520,1184
13.0540,1600
13.0560,5009
13.0580,1552
13.0600,1424
13.0620,2384
13.0640,1376
13.0660,1280
13.0680,1408
13.0700,1264
13.0720,5457
13.0740,3136
13.0760,1664
13.0780,1632
13.0800,1120
13.0820,944
13.0840,1520
13.0860,1168
13.0880,1264
13.0900,1392
13.0920,1456
13.0940,1664
13.0960,1184
13.0980,1248
13.1000,1264
13.1020,1120
13.1040,1504
13.1060,1632
13.1080,1824
13.1100,1280
13.1120,2608
13.1140,2304
13.1160,1344
13.1180,1216
13.1200,1232
13.1220,1344
13.1240,1376
13.1260,1056
13.1280,1424
13.1300,1152
13.1320,1280
13.1340,1664
13.1360,1440
13.1380,2880
13.1400,15203
13.1420,2048
13.1440,5025
13.1460,2384
13.1480,1424
13.1500,1792
13.1520,1072
13.1540,2224
13.1560,1408
13.1580,3280
13.1600,1952
13.1620,1184
13.1640,1216
13.1660,1456
13.1680,1552
13.1700,1504
13.1720,2320
13.1740,1808
13.1760,2400
13.1780,1984
13.1800,1808
13.1820,1744
13.1840,1296
13.1860,3504
13.1880,2016
13.1900,2384
13.1920,912
13.1940,1472
13.1960,1552
13.1980,1840
13.2000,896
13.2020,1296
13.2040,1744
13.2060,1040
13.2080,1168
13.2100,1312
13.2120,1376
13.2140,1856
13.2160,1280
13.2180,1840
13.2200,1568
13.2220,1072
13.2240,1744
13.2260,1088
13.2280,1440
13.2300,1568
13.2320,1856
13.2340,6465
13.2360,1136
13.2380,1312
13.2400,2480
13.2420,2912
13.2440,1136
13.2460,1296
13.2480,1584
13.2500,1680
13.2520,1664
13.2540,816
13.2560,864
13.2580,1440
13.2600,1072
13.2620,1440
13.2640,1216
13.2660,1168
13.2680,2624
13.2700,1376
13.2720,976
13.2740,1632
13.2760,1360
13.2780,4561
13.2800,1824
13.2820,4080
13.2840,1696
13.2860,1312
13.2880,1632
13.2900,1280
13.2920,2608
13.2940,1024
13.2960,1408
13.2980,1008
13.3000,1088
13.3020,1152
13.3040,976
13.3060,1136
13.3080,1168
13.3100,3680
13.3120,6305
13.3140,1952
13.3160,4064
13.3180,2288
13.3200,2064
13.3220,1216
13.3240,960
13.3260,976
13.3280,1616
13.3300,1232
13.3320,1376
13.3340,1056
13.3360,3280
13.3380,2384
13.3400,3280
13.3420,3600
13.3440,1632
13.3460,1424
13.3480,1872
13.3500,1424
13.3520,1456
13.3540,1184
13.3560,2640
13.3580,4048
13.3600,2208
13.3620,1280
13.3640,1056
13.3660,928
13.3680,2640
13.3700,1648
13.3720,944
13.3740,2288
13.3760,1952
13.3780,1184
13.3800,1104
13.3820,1712
13.3840,1808
13.3860,1552
13.3880,1616
13.3900,1280
13.3920,1296
13.3940,1104
13.3960,1072
13.3980,1408
13.4000,6417
13.4020,10546
13.4040,1488
13.4060,1504
13.4080,1296
13.4100,3968
13.4120,3648
13.4140,1280
13.4160,1424
13.4180,976
13.4200,1408
13.4220,1200
13.4240,1184
13.4260,5953
13.4280,2560
13.4300,1488
13.4320,1568
13.4340,2512
13.4360,4465
13.4380,1344
13.4400,1408
13.4420,1472
13.4440,1248
13.4460,1248
13.4480,2112
13.4500,1216
13.4520,1584
13.4540,1232
13.4560,1536
13.4580,960
13.4600,1744
13.4620,1216
13.4640,1616
13.4660,1280
13.4680,1856
13.4700,1104
13.4720,1248
13.4740,1168
13.4760,1280
13.4780,1616
13.4800,1088
13.4820,1184
13.4840,3552
13.4860,1760
13.4880,1296
13.4900,1088
13.4920,1696
13.4940,1536
13.4960,3616
13.4980,672
13.5000,2496
13.5020,1792
13.5040,1360
13.5060,912
13.5080,1280
13.5100,1168
13.5120,2832
13.5140,4097
13.5160,3680
13.5180,1168
13.5200,2224
13.5220,3408
13.5240,3808
13.5260,1776
13.5280,1360
13.5300,1504
13.5320,1536
13.5340,8402
13.5360,14259
13.5380,1360
13.5400,1472
13.5420,1072
13.5440,1072
13.5460,1792
13.5480,1680
13.5500,4113
13.5520,1120
13.5540,1616
13.5560,928
13.5580,1328
13.5600,1376
13.5620,3040
13.5640,2912
13.5660,4129
13.5680,2864
13.5700,1344
13.5720,1232
13.5740,1600
13.5760,1152
13.5780,1296
13.5800,1632
13.5820,5681
13.5840,3856
13.5860,6961
13.5880,3056
13.5900,1856
13.5920,2000
13.5940,1536
13.5960,1024
13.5980,1456
13.6000,1280
13.6020,1296
13.6040,2016
13.6060,1888
13.6080,1552
13.6100,1424
13.6120,1440
13.6140,1072
13.6160,1360
13.6180,3872
13.6200,2688
13.6220,2448
13.6240,1376
13.6260,1360
13.6280,1200
13.6300,976
13.6320,2352
13.6340,2112
13.6360,3456
13.6380,1744
13.6400,1168
13.6420,2224
13.6440,6833
13.6460,1824
13.6480,1104
13.6500,1088
13.6520,1040
13.6540,1472
13.6560,1088
13.6580,1040
13.6600,1360
13.6620,1792
13.6640,1120
13.6660,1104
13.6680,1296
13.6700,1696
13.6720,3008
13.6740,1248
13.6760,2464
13.6780,1504
13.6800,1824
13.6820,1072
13.6840,3232
13.6860,2144
13.6880,1040
13.6900,1104
13.6920,1360
13.6940,1120
13.6960,1632
13.6980,1488
13.7000,1856
13.7020,1344
13.7040,1456
13.7060,1232
13.7080,1632
13.7100,3024
13.7120,2544
13.7140,1184
13.7160,3424
13.7180,2848
13.7200,1232
13.7220,13955
13.7240,4577
13.7260,1344
13.7280,2912
13.7300,2224
13.7320,1664
13.7340,1328
13.7360,1440
13.7380,1456
13.7400,912
13.7420,912
13.7440,1088
13.7460,1408
13.7480,1936
13.7500,1360
13.7520,1056
13.7540,1296
13.7560,1824
13.7580,1568
13.7600,4817
13.7620,2144
13.7640,1088
13.7660,1616
13.7680,1168
13.7700,1536
13.7720,976
13.7740,3120
13.7760,1024
13.7780,864
13.7800,1584
13.7820,1744
13.7840,1936
13.7860,1680
13.7880,1696
13.7900,2128
13.7920,1696
13.7940,1360
13.7960,1216
13.7980,1984
13.8000,2272
13.8020,1040
13.8040,1328
13.8060,1264
13.8080,2064
13.8100,1584
13.8120,2496
13.8140,3600
13.8160,1264
13.8180,1552
13.8200,1376
13.8220,1344
13.8240,1328
13.8260,1552
13.8280,1568
13.8300,1376
13.8320,1488
13.8340,1840
13.8360,4833
13.8380,1840
13.8400,1600
13.8420,1200
13.8440,1104
13.8460,1152
13.8480,15891
13.8500,14147
13.8520,1184
13.8540,2912
13.8560,1600
13.8580,1312
13.8600,1056
13.8620,1856
13.8640,1472
13.8660,1136
13.8680,3968
13.8700,1024
13.8720,1232
13.8740,1360
13.8760,1184
13.8780,1600
13.8800,1280
13.8820,1632
13.8840,1616
13.8860,1328
13.8880,2400
13.8900,1472
13.8920,1600
13.8940,1504
13.8960,1216
13.8980,1248
13.9000,1536
13.9020,1280
13.9040,1168
13.9060,1200
13.9080,1440
13.9100,1328
13.9120,848
13.9140,1552
13.9160,1024
13.9180,1456
13.9200,6449
13.9220,2784
13.9240,912
13.9260,1104
13.9280,1408
13.9300,1040
13.9320,1120
13.9340,1168
13.9360,1728
13.9380,2080
13.9400,1360
13.9420,1328
13.9440,1120
13.9460,2144
13.9480,1600
13.9500,1696
13.9520,3456
13.9540,1824
13.9560,3872
13.9580,1712
13.9600,2272
13.9620,1712
13.9640,2832
13.9660,1920
13.9680,1744
13.9700,1168
13.9720,2848
13.9740,9426
13.9760,13587
13.9780,13091
13.9800,1360
13.9820,2352
13.9840,1376
13.9860,1024
13.9880,1088
13.9900,1344
13.9920,1184
13.9940,1840
13.9960,1120
13.9980,2736
14.0000,1536
14.0020,1024
14.0040,1456
14.0060,2432
14.0080,6241
14.0100,3664
14.0120,1440
14.0140,1056
14.0160,1472
14.0180,1648
14.0200,944
14.0220,1584
14.0240,1328
14.0260,1376
14.0280,1056
14.0300,1712
14.0320,3248
14.0340,1408
14.0360,1728
14.0380,1024
14.0400,1376
14.0420,1168
14.0440,1216
14.0460,1328
14.0480,1408
14.0500,1600
14.0520,3936
14.0540,1312
14.0560,3760
14.0580,1360
14.0600,4561
14.0620,2656
14.0640,1408
14.0660,1728
14.0680,1360
14.0700,1008
14.0720,976
14.0740,1232
14.0760,992
14.0780,1344
14.0800,1584
14.0820,1728
14.0840,1152
14.0860,1424
14.0880,1456
14.0900,1728
14.0920,1312
14.0940,1312
14.0960,1200
14.0980,19508
14.1000,13747
14.1020,1168
14.1040,1232
14.1060,1424
14.1080,1104
14.1100,992
14.1120,1072
14.1140,1104
14.1160,1040
14.1180,1664
14.1200,1168
14.1220,1056
14.1240,1120
14.1260,1120
14.1280,2080
14.1300,1120
14.1320,2336
14.1340,1120
14.1360,1504
14.1380,4913
14.1400,1664
14.1420,1568
14.1440,1264
14.1460,2192
14.1480,1072
14.1500,976
14.1520,2096
14.1540,1040
14.1560,2304
14.1580,1376
14.1600,3232
14.1620,992
14.1640,1680
14.1660,1616
14.1680,1184
14.1700,1024
14.1720,1408
14.1740,1552
14.1760,1280
14.1780,1408
14.1800,1536
14.1820,2016
14.1840,1920
14.1860,1456
14.1880,1424
14.1900,3344
14.1920,3408
14.1940,1408
14.1960,1440
14.1980,5057
14.2000,1968
14.2020,2272
14.2040,1216
14.2060,1360
14.2080,1248
14.2100,864
14.2120,1664
14.2140,1040
14.2160,1216
14.2180,1344
14.2200,960
14.2220,10338
14.2240,5985
14.2260,1552
14.2280,1888
14.2300,1440
14.2320,1648
14.2340,1472
14.2360,1344
14.2380,2400
14.2400,1280
14.2420,2768
14.2440,4961
14.2460,6705
14.2480,1952
14.2500,1264
14.2520,1136
14.2540,1312
14.2560,1072
14.2580,2896
14.2600,2768
14.2620,1072
14.2640,1360
14.2660,1488
14.2680,2752
14.2700,1504
14.2720,1152
14.2740,976
14.2760,896
14.2780,1056
14.2800,1152
14.2820,1712
14.2840,1744
14.2860,1632
14.2880,2448
14.2900,1488
14.2920,1424
14.2940,1456
14.2960,7841
14.2980,3984
14.3000,3360
14.3020,2096
14.3040,1728
14.3060,3136
14.3080,1136
14.3100,1152
14.3120,1104
14.3140,1104
14.3160,2080
14.3180,1360
14.3200,2096
14.3220,1184
14.3240,1536
14.3260,1248
14.3280,1504
14.3300,1184
14.3320,1952
14.3340,1424
14.3360,1456
14.3380,1040
14.3400,1600
14.3420,1600
14.3440,1632
14.3460,1840
14.3480,4145
14.3500,7313
14.3520,2560
14.3540,1408
14.3560,1312
14.3580,1616
14.3600,1296
14.3620,1184
14.3640,1328
14.3660,1312
14.3680,1568
14.3700,1408
14.3720,1504
14.3740,1232
14.3760,1488
14.3780,1408
14.3800,1872
14.3820,1120
14.3840,1600
14.3860,1728
14.3880,1120
14.3900,1328
14.3920,1456
14.3940,1456
14.3960,1232
14.3980,1216
14.4000,1696
14.4020,1328
14.4040,848
14.4060,1488
14.4080,1120
14.4100,1088
14.4120,4177
14.4140,2640
14.4160,1072
14.4180,1872
14.4200,1680
14.4220,3648
14.4240,4801
14.4260,1760
14.4280,1888
14.4300,1280
14.4320,1408
14.4340,1424
14.4360,1696
14.4380,1760
14.4400,1488
14.4420,1456
14.4440,1024
14.4460,1216
14.4480,1568
14.4500,1568
14.4520,1280
14.4540,992
14.4560,992
14.4580,1440
14.4600,1424
14.4620,3424
14.4640,3792
14.4660,1952
14.4680,1568
14.4700,1568
14.4720,1456
14.4740,1488
14.4760,1232
14.4780,1360
14.4800,1168
14.4820,1328
14.4840,1616
14.4860,1328
14.4880,1408
14.4900,1168
14.4920,1424
14.4940,1600
14.4960,1472
14.4980,1040
14.5000,1360
14.5020,1152
14.5040,1344
14.5060,1536
14.5080,1328
14.5100,992
14.5120,960
14.5140,1424
14.5160,1360
14.5180,1488
14.5200,1328
14.5220,1168
14.5240,1264
14.5260,1360
14.5280,1376
14.5300,2256
14.5320,1392
14.5340,1872
14.5360,1232
14.5380,1536
14.5400,1376
14.5420,1120
14.5440,1328
14.5460,1472
14.5480,1552
14.5500,1680
14.5520,1792
14.5540,3008
14.5560,1552
14.5580,1376
14.5600,1312
14.5620,1792
14.5640,1440
14.5660,2016
14.5680,1520
14.5700,1584
14.5720,1952
14.5740,1520
14.5760,1168
14.5780,1584
14.5800,2432
14.5820,1712
14.5840,1216
14.5860,1456
14.5880,1536
14.5900,1472
14.5920,1328
14.5940,1664
14.5960,1376
14.5980,1536
14.6000,1104
14.6020,992
14.6040,976
14.6060,1120
14.6080,1408
14.6100,3520
14.6120,1520
14.6140,1856
14.6160,2656
14.6180,1120
14.6200,1376
14.6220,1280
14.6240,1824
14.6260,1152
14.6280,1632
14.6300,13075
14.6320,7121
14.6340,1472
14.6360,928
14.6380,1168
14.6400,1200
14.6420,1008
14.6440,976
14.6460,1584
14.6480,1344
14.6500,1216
14.6520,1440
14.6540,1808
14.6560,1360
14.6580,1104
14.6600,1536
14.6620,1440
14.6640,3872
14.6660,1584
14.6680,1184
14.6700,1104
14.6720,1424
14.6740,1616
14.6760,1040
14.6780,1456
14.6800,1568
14.6820,1120
14.6840,1248
14.6860,6241
14.6880,6497
14.6900,3920
14.6920,1936
14.6940,1936
14.6960,1344
14.6980,1424
14.7000,1568
14.7020,1104
14.7040,1552
14.7060,2320
14.7080,1024
14.7100,1312
14.7120,1616
14.7140,1328
14.7160,1776
14.7180,1376
14.7200,1088
14.7220,1072
14.7240,1472
14.7260,1232
14.7280,1728
14.7300,1696
14.7320,1216
14.7340,1456
14.7360,1808
14.7380,1072
14.7400,1120
14.7420,1360
14.7440,1072
14.7460,1584
14.7480,1344
14.7500,1760
14.7520,1200
14.7540,3456
14.7560,2816
14.7580,2176
14.7600,3888
14.7620,1568
14.7640,1216
14.7660,1664
14.7680,1088
14.7700,1120
14.7720,1664
14.7740,2352
14.7760,3872
14.7780,4417
14.7800,1168
14.7820,1088
14.7840,1376
14.7860,1120
14.7880,1104
14.7900,3376
14.7920,1760
14.7940,1296
14.7960,1024
14.7980,1312
14.8000,1072
14.8020,1968
14.8040,1280
14.8060,1360
14.8080,3376
14.8100,4673
14.8120,1472
14.8140,1520
14.8160,1296
14.8180,1152
14.8200,1872
14.8220,1552
14.8240,1616
14.8260,2128
14.8280,8177
14.8300,15635
14.8320,1360
14.8340,1632
14.8360,1152
14.8380,1504
14.8400,1296
14.8420,1088
14.8440,1440
14.8460,1152
14.8480,1232
14.8500,944
14.8520,1104
14.8540,1216
14.8560,1232
14.8580,1424
14.8600,1312
14.8620,1104
14.8640,1296
14.8660,1072
14.8680,1728
14.8700,1360
14.8720,2080
14.8740,1168
14.8760,1504
14.8780,1888
14.8800,1280
14.8820,944
14.8840,1376
14.8860,1840
14.8880,1072
14.8900,1088
14.8920,1264
14.8940,1408
14.8960,1888
14.8980,1712
14.9000,1536
14.9020,1680
14.9040,1040
14.9060,944
14.9080,1632
14.9100,1312
14.9120,1152
14.9140,1200
14.9160,3984
14.9180,2240
14.9200,1680
14.9220,2976
14.9240,1664
14.9260,1120
14.9280,1440
14.9300,1632
14.9320,1408
14.9340,1936
14.9360,1040
14.9380,1328
14.9400,7153
14.9420,2592
14.9440,1040
14.9460,1200
14.9480,1328
14.9500,1808
14.9520,1280
14.9540,1280
14.9560,1120
14.9580,1168
14.9600,976
14.9620,1440
14.9640,2608
14.9660,3792
14.9680,896
14.9700,1744
14.9720,1488
14.9740,1104
14.9760,1376
14.9780,1184
14.9800,1216
14.9820,1344
14.9840,1648
14.9860,1376
14.9880,1168
14.9900,1552
14.9920,5793
14.9940,3984
14.9960,1056
14.9980,1712
15.0000,1840
15.0020,1344
15.0040,960
15.0060,1248
15.0080,1120
15.0100,1168
15.0120,2080
15.0140,1200
15.0160,1616
15.0180,1184
15.0200,1280
15.0220,1296
15.0240,976
15.0260,1040
15.0280,1264
15.0300,3104
15.0320,2736
15.0340,2016
15.0360,1152
15.0380,1584
15.0400,1856
15.0420,1456
15.0440,1584
15.0460,1248
15.0480,1168
15.0500,1344
15.0520,1392
15.0540,912
15.0560,1328
15.0580,1056
15.0600,1936
15.0620,1456
15.0640,1424
15.0660,1504
15.0680,1408
15.0700,1376
15.0720,1664
15.0740,1424
15.0760,1456
15.0780,848
15.0800,1280
15.0820,1280
15.0840,2880
15.0860,1152
15.0880,960
15.0900,1136
15.0920,1632
15.0940,1264
15.0960,1200
15.0980,4113
15.1000,3792
15.1020,1632
15.1040,1792
15.1060,960
15.1080,1296
15.1100,1456
15.1120,6993
15.1140,2992
15.1160,1744
15.1180,2000
15.1200,1344
15.1220,1072
15.1240,1328
15.1260,960
15.1280,1968
15.1300,1472
15.1320,1232
15.1340,1536
15.1360,1200
15.1380,1232
15.1400,1568
15.1420,1296
15.1440,992
15.1460,1312
15.1480,3168
15.1500,2304
15.1520,1200
15.1540,1520
15.1560,1264
15.1580,832
15.1600,1248
15.1620,912
15.1640,1440
15.1660,1552
15.1680,2016
15.1700,1472
15.1720,1984
15.1740,1664
15.1760,1312
15.1780,1712
15.1800,1440
15.1820,1344
15.1840,1072
15.1860,1808
15.1880,1120
15.1900,1104
15.1920,1232
15.1940,992
15.1960,1456
15.1980,1472
15.2000,1088
15.2020,1408
15.2040,1408
15.2060,1200
15.2080,1872
15.2100,1808
15.2120,1456
15.2140,1792
15.2160,1200
15.2180,1424
15.2200,1360
15.2220,1232
15.2240,1344
15.2260,928
15.2280,1184
15.2300,1408
15.2320,896
15.2340,1488
15.2360,720
15.2380,1280
15.2400,1216
15.2420,1200
15.2440,1328
15.2460,1520
15.2480,1040
15.2500,1888
15.2520,1056
15.2540,1680
15.2560,1456
15.2580,1376
15.2600,1344
15.2620,1296
15.2640,1296
15.2660,1424
15.2680,1120
15.2700,1040
15.2720,1520
15.2740,1424
15.2760,1728
15.2780,1024
15.2800,1440
15.2820,1552
15.2840,1072
15.2860,1552
15.2880,1744
15.2900,2192
15.2920,976
15.2940,1872
15.2960,1664
15.2980,1328
15.3000,1504
15.3020,944
15.3040,1488
15.3060,864
15.3080,1488
15.3100,1792
15.3120,1104
15.3140,1568
15.3160,1056
15.3180,1680
15.3200,880
15.3220,1088
15.3240,1600
15.3260,1088
15.3280,1584
15.3300,1280
15.3320,1216
15.3340,1440
15.3360,1696
15.3380,1312
15.3400,1760
15.3420,1376
15.3440,1808
15.3460,3296
15.3480,1984
15.3500,1456
15.3520,1360
15.3540,704
15.3560,1280
15.3580,1408
15.3600,1104
15.3620,1024
15.3640,1120
15.3660,2576
15.3680,1120
15.3700,1088
15.3720,1200
15.3740,4545
15.3760,1616
15.3780,7137
15.3800,1456
15.3820,1376
15.3840,1088
15.3860,1280
15.3880,1280
15.3900,1600
15.3920,1136
15.3940,1168
15.3960,2576
15.3980,1376
15.4000,1376
15.4020,1248
15.4040,1248
15.4060,1056
15.4080,1264
15.4100,1104
15.4120,1296
15.4140,1536
15.4160,1920
15.4180,912
15.4200,1216
15.4220,1104
15.4240,1024
15.4260,1344
15.4280,1152
15.4300,1344
15.4320,1360
15.4340,1232
15.4360,1680
15.4380,1504
15.4400,1488
15.4420,1280
15.4440,1712
15.4460,1568
15.4480,1376
15.4500,1984
15.4520,1264
15.4540,1184
15.4560,1344
15.4580,1248
15.4600,1104
15.4620,1488
15.4640,1552
15.4660,1680
15.4680,1328
15.4700,960
15.4720,1248
15.4740,1568
15.4760,1232
15.4780,1424
15.4800,2192
15.4820,2816
15.4840,1744
15.4860,1152
15.4880,1104
15.4900,912
15.4920,1792
15.4940,1008
15.4960,1104
15.4980,1328
15.5000,1408
15.5020,1248
15.5040,1680
15.5060,1440
15.5080,1424
15.5100,1072
15.5120,1200
15.5140,1072
15.5160,1456
15.5180,1824
15.5200,1376
15.5220,6337
15.5240,6209
15.5260,1296
15.5280,1536
15.5300,1632
15.5320,1424
15.5340,1184
15.5360,1104
15.5380,1104
15.5400,1584
15.5420,1200
15.5440,1296
15.5460,1072
15.5480,1584
15.5500,1040
15.5520,992
15.5540,1088
15.5560,1840
15.5580,2304
15.5600,1600
15.5620,1312
15.5640,1568
15.5660,1056
15.5680,2128
15.5700,992
15.5720,1632
15.5740,2272
15.5760,3056
15.5780,1232
15.5800,1440
15.5820,1424
15.5840,1024
15.5860,2128
15.5880,1952
15.5900,1296
15.5920,1376
15.5940,1504
15.5960,1536
15.5980,1376
15.6000,1968
15.6020,1120
15.6040,1136
15.6060,2240
15.6080,1808
15.6100,1376
15.6120,1328
15.6140,1104
15.6160,1664
15.6180,1728
15.6200,2048
15.6220,2640
15.6240,1584
15.6260,1328
15.6280,1040
15.6300,1040
15.6320,1600
15.6340,1520
15.6360,1344
15.6380,1712
15.6400,1392
15.6420,2304
15.6440,4625
15.6460,1520
15.6480,1888
15.6500,1600
15.6520,960
15.6540,1152
15.6560,1792
15.6580,1104
15.6600,1472
15.6620,1552
15.6640,1056
15.6660,1968
15.6680,1456
15.6700,1536
15.6720,1024
15.6740,1680
15.6760,1216
15.6780,3104
15.6800,1184
15.6820,2352
15.6840,1600
15.6860,1360
15.6880,1024
15.6900,1568
15.6920,1488
15.6940,1184
15.6960,1232
15.6980,1728
15.7000,1248
15.7020,1296
15.7040,992
15.7060,1360
15.7080,5217
15.7100,2352
15.7120,1376
15.7140,1616
15.7160,1472
15.7180,1168
15.7200,1296
15.7220,1040
15.7240,2944
15.7260,1424
15.7280,976
15.7300,1712
15.7320,1280
15.7340,2336
15.7360,1616
15.7380,1216
15.7400,1056
15.7420,1344
15.7440,1744
15.7460,1104
15.7480,1200
15.7500,1296
15.7520,1792
15.7540,1280
15.7560,2320
15.7580,1120
15.7600,1568
15.7620,1056
15.7640,1440
15.7660,1520
15.7680,2496
15.7700,1360
15.7720,1472
15.7740,5409
15.7760,1168
15.7780,1088
15.7800,1968
15.7820,1312
15.7840,1760
15.7860,6641
15.7880,1440
15.7900,1680
15.7920,1936
15.7940,1488
15.7960,1680
15.7980,1248
15.8000,1264
15.8020,2656
15.8040,1120
15.8060,7249
15.8080,2624
15.8100,2544
15.8120,2112
15.8140,1664
15.8160,1680
15.8180,1008
15.8200,1328
15.8220,5649
15.8240,3680
15.8260,4993
15.8280,2688
15.8300,1568
15.8320,1744
15.8340,1072
15.8360,1504
15.8380,1312
15.8400,4241
15.8420,6209
15.8440,2688
15.8460,3232
15.8480,6081
15.8500,2096
15.8520,1184
15.8540,3168
15.8560,3536
15.8580,1616
15.8600,2560
15.8620,1584
15.8640,1712
15.8660,1680
15.8680,2000
15.8700,960
15.8720,3328
15.8740,1232
15.8760,9570
15.8780,8658
15.8800,1248
15.8820,1072
15.8840,1504
15.8860,2496
15.8880,2528
15.8900,1360
15.8920,5249
15.8940,3376
15.8960,1072
15.8980,2016
15.9000,1616
15.9020,5633
15.9040,1504
15.9060,2784
15.9080,1952
15.9100,2000
15.9120,1520
15.9140,1408
15.9160,1552
15.9180,1504
15.9200,1856
15.9220,1248
15.9240,7713
15.9260,3488
15.9280,4032
15.9300,3584
15.9320,2128
15.9340,3328
15.9360,2704
15.9380,2320
15.9400,1168
15.9420,1552
15.9440,1568
15.9460,1088
15.9480,3792
15.9500,3520
15.9520,6545
15.9540,1312
15.9560,1536
15.9580,1808
15.9600,3792
15.9620,3008
15.9640,1920
15.9660,1344
15.9680,1872
15.9700,1424
15.9720,3280
15.9740,1552
15.9760,4689
15.9780,6945
15.9800,6817
15.9820,4257
15.9840,2336
15.9860,1664
15.9880,5553
15.9900,3840
15.9920,1664
15.9940,10050
15.9960,5121
15.9980,4641
16.0000,3936
16.0020,1808
16.0040,3824
16.0060,2176
16.0080,5969
16.0100,2256
16.0120,3456
16.0140,1056
16.0160,2704
16.0180,1600
16.0200,2976
16.0220,10162
16.0240,1248
16.0260,6881
16.0280,2736
16.0300,18884
16.0320,4241
16.0340,2608
16.0360,12723
16.0380,7009
16.0400,4673
16.0420,8578
16.0440,3776
16.0460,4689
16.0480,4769
16.0500,3888
16.0520,8994
16.0540,4913
16.0560,5169
16.0580,3856
16.0600,3408
16.0620,1840
16.0640,1232
16.0660,5041
16.0680,2048
16.0700,3520
16.0720,9634
16.0740,2064
16.0760,3776
16.0780,10242
16.0800,3728
16.0820,6017
16.0840,9794
16.0860,10994
16.0880,1200
16.0900,4993
16.0920,1600
16.0940,2560
16.0960,1504
16.0980,1232
16.1000,1376
16.1020,7185
16.1040,2192
16.1060,3968
16.1080,1856
16.1100,1328
16.1120,4785
16.1140,2320
16.1160,6433
16.1180,2192
16.1200,10194
16.1220,11106
16.1240,1536
16.1260,8177
16.1280,10722
16.1300,2192
16.1320,2944
16.1340,13747
16.1360,2880
16.1380,5665
16.1400,4769
16.1420,2192
16.1440,2992
16.1460,1104
16.1480,2128
16.1500,2320
16.1520,1504
16.1540,5265
16.1560,4129
16.1580,1536
16.1600,3424
16.1620,3424
16.1640,4769
16.1660,9042
16.1680,4113
16.1700,3024
16.1720,1200
16.1740,10802
16.1760,1536
16.1780,3600
16.1800,2960
16.1820,5921
16.1840,4161
16.1860,14739
16.1880,2848
16.1900,10402
16.1920,4497
16.1940,5937
16.1960,1696
16.1980,6913
16.2000,7265
16.2020,2832
16.2040,3920
16.2060,6737
16.2080,14547
16.2100,5905
16.2120,3472
16.2140,1488
16.2160,1232
16.2180,1472
16.2200,1616
16.2220,7569
16.2240,5985
16.2260,2000
16.2280,5553
16.2300,8610
16.2320,8177
16.2340,1840
16.2360,1984
16.2380,15315
16.2400,6673
16.2420,2912
16.2440,1536
16.2460,2432
16.2480,3360
16.2500,5073
16.2520,1840
16.2540,8978
16.2560,12210
16.2580,15715
16.2600,14339
16.2620,2208
16.2640,1424
16.2660,6657
16.2680,2960
16.2700,20420
16.2720,2208
16.2740,3840
16.2760,10034
16.2780,9874
16.2800,16067
16.2820,1056
16.2840,16275
16.2860,4161
16.2880,35800
16.2900,7841
16.2920,2304
16.2940,9186
16.2960,3392
16.2980,3376
16.3000,1808
16.3020,4481
16.3040,1760
16.3060,26326
16.3080,17092
16.3100,2240
16.3120,1808
16.3140,2016
16.3160,7841
16.3180,2528
16.3200,2592
16.3220,7601
16.3240,1568
16.3260,3152
16.3280,6945
16.3300,17684
16.3320,6417
16.3340,2992
16.3360,6897
16.3380,4673
16.3400,13059
16.3420,2656
16.3440,4129
16.3460,3424
16.3480,22213
16.3500,6321
16.3520,1824
16.3540,2816
16.3560,35384
16.3580,4193
16.3600,7681
16.3620,6433
16.3640,5921
16.3660,1408
16.3680,5905
16.3700,1776
16.3720,17684
16.3740,7473
16.3760,13331
16.3780,1856
16.3800,5313
16.3820,3728
16.3840,8786
16.3860,2480
16.3880,1360
16.3900,4000
16.3920,4113
16.3940,2448
16.3960,6001
16.3980,15011
16.4000,17460
16.4020,2384
16.4040,1792
16.4060,24662
16.4080,4609
16.4100,2752
16.4120,13027
16.4140,4097
16.4160,18388
16.4180,5409
16.4200,7377
16.4220,5697
16.4240,1840
16.4260,4609
16.4280,35560
16.4300,3168
16.4320,31079
16.4340,26822
16.4360,1808
16.4380,1216
16.4400,1072
16.4420,2976
16.4440,16067
16.4460,15491
16.4480,3584
16.4500,24565
16.4520,18964
16.4540,16804
16.4560,2384
16.4580,2528
16.4600,5425
16.4620,9378
16.4640,5921
16.4660,3728
16.4680,4481
16.4700,1312
16.4720,10306
16.4740,1840
16.4760,15571
16.4780,12242
16.4800,13091
16.4820,10194
16.4840,1504
16.4860,6897
16.4880,3328
16.4900,18388
16.4920,2720
16.4940,12883
16.4960,16003
16.4980,2448
16.5000,33976
16.5020,30215
16.5040,8930
16.5060,10450
16.5080,25270
16.5100,5569
16.5120,8402
16.5140,3168
16.5160,7857
16.5180,6993
16.5200,13667
16.5220,6097
16.5240,2976
16.5260,1712
16.5280,30631
16.5300,5473
16.5320,8242
16.5340,13491
16.5360,7873
16.5380,1888
16.5400,9810
16.5420,5265
16.5440,6721
16.5460,1504
16.5480,5985
16.5500,12291
16.5520,22341
16.5540,8514
16.5560,4625
16.5580,7873
16.5600,4064
16.5620,6337
16.5640,1872
16.5660,13091
16.5680,24565
16.5700,4064
16.5720,11922
16.5740,26086
16.5760,26918
16.5780,9554
16.5800,17108
16.5820,1952
16.5840,19236
16.5860,14899
16.5880,2384
16.5900,23301
16.5920,6177
16.5940,4689
16.5960,1440
16.5980,18116
16.6000,2160
16.6020,3760
16.6040,2048
16.6060,3968
16.6080,2976
16.6100,19332
16.6120,4321
16.6140,18580
16.6160,4689
16.6180,32503
16.6200,30631
16.6220,2176
16.6240,3328
16.6260,10242
16.6280,3168
16.6300,9250
16.6320,35272
16.6340,17796
16.6360,23573
16.6380,29415
16.6400,3424
16.6420,3104
16.6440,8418
16.6460,3008
16.6480,2944
16.6500,1664
16.6520,15315
16.6540,6465
16.6560,9234
16.6580,19156
16.6600,1344
16.6620,6657
16.6640,2656
16.6660,19540
16.6680,2128
16.6700,8177
16.6720,7057
16.6740,17044
16.6760,15555
16.6780,1440
16.6800,13091
16.6820,16836
16.6840,10914
16.6860,6289
16.6880,10882
16.6900,17684
16.6920,3216
16.6940,25270
16.6960,4689
16.6980,1632
16.7000,2688
16.7020,18228
16.7040,1760
16.7060,13315
16.7080,22837
16.7100,5921
16.7120,1440
16.7140,5329
16.7160,8642
16.7180,8834
16.7200,8882
16.7220,3904
16.7240,18180
16.7260,1360
16.7280,20645
16.7300,23237
16.7320,2240
16.7340,24341
16.7360,18868
16.7380,5681
16.7400,10978
16.7420,6273
16.7440,1936
16.7460,21509
16.7480,2848
16.7500,8177
16.7520,23701
16.7540,15523
16.7560,11202
16.7580,1488
16.7600,23285
16.7620,13459
16.7640,6305
16.7660,21109
16.7680,1632
16.7700,6865
16.7720,3888
16.7740,4305
16.7760,34664
16.7780,14387
16.7800,19844
16.7820,28871
16.7840,15171
16.7860,10050
16.7880,16852
16.7900,10482
16.7920,1872
16.7940,10722
16.7960,2624
16.7980,3760
16.8000,2464
16.8020,3072
16.8040,2128
16.8060,15891
16.8080,1536
16.8100,14307
16.8120,11842
16.8140,18724
16.8160,2528
16.8180,2560
16.8200,2624
16.8220,9458
16.8240,9202
16.8260,13251
16.8280,5873
16.8300,1664
16.8320,7201
16.8340,8177
16.8360,5777
16.8380,14627
16.8400,34520
16.8420,4817
16.8440,1952
16.8460,1920
16.8480,2768
16.8500,20645
16.8520,13219
16.8540,18100
16.8560,11074
16.8580,1968
16.8600,3152
16.8620,11954
16.8640,10082
16.8660,14515
16.8680,2976
16.8700,26790
16.8720,9410
16.8740,15587
16.8760,11570
16.8780,2976
16.8800,47979
16.8820,15059
16.8840,1760
16.8860,23989
16.8880,9218
16.8900,3152
16.8920,1696
16.8940,6401
16.8960,17924
16.8980,4305
16.9000,1696
16.9020,1216
16.9040,7233
16.9060,2896
16.9080,9170
16.9100,3552
16.9120,6305
16.9140,3920
16.9160,2992
16.9180,16243
16.9200,9410
16.9220,35880
16.9240,15299
16.9260,10674
16.9280,7089
16.9300,2272
16.9320,14851
16.9340,8962
16.9360,14419
16.9380,22677
16.9400,10242
16.9420,2656
16.9440,7793
16.9460,11698
16.9480,15187
16.9500,3248
16.9520,1680
16.9540,1904
16.9560,15699
16.9580,2624
16.9600,18932
16.9620,23157
16.9640,42154
16.9660,22053
16.9680,1840
16.9700,4353
16.9720,3840
16.9740,8258
16.9760,11826
16.9780,19716
16.9800,5329
16.9820,11234
16.9840,2544
16.9860,3152
16.9880,7761
16.9900,8946
16.9920,2912
16.9940,1792
16.9960,24565
16.9980,8258
17.0000,19156
17.0020,2672
17.0040,19396
17.0060,14691
17.0080,3376
17.0100,22149
17.0120,21061
17.0140,2944
17.0160,6673
17.0180,21413
17.0200,12595
17.0220,6273
17.0240,2048
17.0260,20837
17.0280,24565
17.0300,23701
17.0320,1984
17.0340,2560
17.0360,16420
17.0380,7697
17.0400,5377
17.0420,4961
17.0440,11346
17.0460,6497
17.0480,3760
17.0500,5905
17.0520,17156
17.0540,16099
17.0560,22245
17.0580,15539
17.0600,2176
17.0620,3776
17.0640,15523
17.0660,9522
17.0680,13603
17.0700,2064
17.0720,1760
17.0740,1920
17.0760,1984
17.0780,4064
17.0800,3136
17.0820,18052
17.0840,14083
17.0860,6497
17.0880,10626
17.0900,4849
17.0920,3232
17.0940,1712
17.0960,4529
17.0980,6017
17.1000,10466
17.1020,2112
17.1040,2784
17.1060,3472
17.1080,1920
17.1100,23333
17.1120,6433
17.1140,1760
17.1160,5649
17.1180,10178
17.1200,8177
17.1220,7809
17.1240,8145
17.1260,5505
17.1280,3312
17.1300,9746
17.1320,11858
17.1340,3984
17.1360,12995
17.1380,1712
17.1400,6065
17.1420,17940
17.1440,16388
17.1460,2000
17.1480,2752
17.1500,9090
17.1520,4337
17.1540,3216
17.1560,5121
17.1580,4833
17.1600,2352
17.1620,6081
17.1640,2528
17.1660,10178
17.1680,2688
17.1700,12114
17.1720,2384
17.1740,5777
17.1760,4273
17.1780,2736
17.1800,9634
17.1820,4273
17.1840,12851
17.1860,15715
17.1880,1856
17.1900,5505
17.1920,14275
17.1940,6225
17.1960,5169
17.1980,34456
17.2000,1664
17.2020,13235
17.2040,10386
17.2060,19444
17.2080,2896
17.2100,1760
17.2120,10194
17.2140,10770
17.2160,3264
17.2180,11778
17.2200,19508
17.2220,9570
17.2240,15267
17.2260,8386
17.2280,23877
17.2300,13363
17.2320,10242
17.2340,24630
17.2360,2320
17.2380,2976
17.2400,13155
17.2420,26934
17.2440,13811
17.2460,4321
17.2480,1712
17.2500,4241
17.2520,3296
17.2540,1808
17.2560,19588
17.2580,11010
17.2600,10130
17.2620,4833
17.2640,3120
17.2660,2880
17.2680,2144
17.2700,6177
17.2720,6385
17.2740,15875
17.2760,3232
17.2780,4449
17.2800,1856
17.2820,10946
17.2840,6177
17.2860,5425
17.2880,12499
17.2900,13139
17.2920,5793
17.2940,3840
17.2960,2176
17.2980,2064
17.3000,2640
17.3020,18436
17.3040,2240
17.3060,4000
17.3080,2688
17.3100,3360
17.3120,7409
17.3140,8610
17.3160,3152
17.3180,1760
17.3200,7057
17.3220,9378
17.3240,11330
17.3260,8930
17.3280,14563
17.3300,1392
17.3320,3232
17.3340,16948
17.3360,17876
17.3380,1824
17.3400,11250
17.3420,4593
17.3440,14291
17.3460,13187
17.3480,15891
17.3500,1808
17.3520,2144
17.3540,5281
17.3560,2000
17.3580,2352
17.3600,21445
17.3620,11090
17.3640,16532
17.3660,8177
17.3680,19844
17.3700,3088
17.3720,2144
17.3740,8626
17.3760,1744
17.3780,2384
17.3800,3168
17.3820,8113
17.3840,5153
17.3860,8674
17.3880,2272
17.3900,22773
17.3920,3040
17.3940,8898
17.3960,3840
17.3980,17140
17.4000,5937
17.4020,1120
17.4040,10034
17.4060,1760
17.4080,3856
17.4100,3600
17.4120,3360
17.4140,8994
17.4160,4369
17.4180,5505
17.4200,13923
17.4220,2528
17.4240,13555
17.4260,2096
17.4280,6417
17.4300,1280
17.4320,2560
17.4340,2896
17.4360,2064
17.4380,1088
17.4400,16804
17.4420,5265
17.4440,14739
17.4460,1408
17.4480,2576
17.4500,22597
17.4520,7137
17.4540,21285
17.4560,8674
17.4580,2512
17.4600,4753
17.4620,1104
17.4640,14291
17.4660,4609
17.4680,8850
17.4700,2368
17.4720,7873
17.4740,2976
17.4760,14755
17.4780,5905
17.4800,13747
17.4820,6689
17.4840,10722
17.4860,5889
17.4880,4385
17.4900,1536
17.4920,11426
17.4940,10162
17.4960,4881
17.4980,3600
17.5000,3360
17.5020,3216
17.5040,4545
17.5060,1968
17.5080,24245
17.5100,15811
17.5120,13827
17.5140,7249
17.5160,15459
17.5180,3216
17.5200,22085
17.5220,2848
17.5240,2800
17.5260,6689
17.5280,3920
17.5300,6113
17.5320,4609
17.5340,8866
17.5360,35480
17.5380,37769
17.5400,1664
17.5420,7185
17.5440,3168
17.5460,4048
17.5480,16484
17.5500,9042
17.5520,3328
17.5540,8674
17.5560,15235
17.5580,1968
17.5600,8962
17.5620,3072
17.5640,14499
17.5660,3200
17.5680,2096
17.5700,11954
17.5720,9362
17.5740,2496
17.5760,18068
17.5780,36648
17.5800,9698
17.5820,11682
17.5840,4113
17.5860,24565
17.5880,4481
17.5900,3376
17.5920,3888
17.5940,14483
17.5960,22469
17.5980,1632
17.6000,8610
17.6020,4449
17.6040,6721
17.6060,5649
17.6080,13779
17.6100,18628
17.6120,4385
17.6140,13219
17.6160,13475
17.6180,2704
17.6200,9154
17.6220,3024
17.6240,5281
17.6260,2112
17.6280,3632
17.6300,11314
17.6320,19508
17.6340,4865
17.6360,8498
17.6380,2368
17.6400,6929
17.6420,1680
17.6440,6705
17.6460,4801
17.6480,1328
17.6500,3856
17.6520,3216
17.6540,1888
17.6560,1680
17.6580,5889
17.6600,14099
17.6620,1056
17.6640,7137
17.6660,5681
17.6680,3376
17.6700,8001
17.6720,2192
17.6740,9554
17.6760,6337
17.6780,8161
17.6800,13155
17.6820,8658
17.6840,2608
17.6860,9394
17.6880,15299
17.6900,3664
17.6920,2352
17.6940,1888
17.6960,2800
17.6980,2720
17.7000,4625
17.7020,1312
17.7040,1680
17.7060,12194
17.7080,13795
17.7100,4785
17.7120,8610
17.7140,3248
17.7160,2528
17.7180,5457
17.7200,14627
17.7220,4529
17.7240,7953
17.7260,5729
17.7280,5249
17.7300,1296
17.7320,13187
17.7340,2448
17.7360,16227
17.7380,14979
17.7400,2064
17.7420,4385
17.7440,5057
17.7460,11954
17.7480,2144
17.7500,2768
17.7520,2096
17.7540,3152
17.7560,1616
17.7580,9762
17.7600,1984
17.7620,2768
17.7640,5569
17.7660,13475
17.7680,2048
17.7700,20244
17.7720,9218
17.7740,2624
17.7760,2176
17.7780,1968
17.7800,2256
17.7820,4529
17.7840,2608
17.7860,4641
17.7880,4929
17.7900,1648
17.7920,6337
17.7940,1392
17.7960,3136
17.7980,1760
17.8000,7585
17.8020,2064
17.8040,1824
17.8060,19716
17.8080,14275
17.8100,1312
17.8120,1520
17.8140,12242
17.8160,1824
17.8180,14147
17.8200,2512
17.8220,2752
17.8240,5921
17.8260,1712
17.8280,2112
17.8300,2496
17.8320,8161
17.8340,3968
17.8360,14259
17.8380,4609
17.8400,2320
17.8420,6433
17.8440,17796
17.8460,1936
17.8480,5761
17.8500,11074
17.8520,10066
17.8540,2624
17.8560,7169
17.8580,8033
17.8600,3888
17.8620,3168
17.8640,6353
17.8660,3376
17.8680,4785
17.8700,7649
17.8720,5937
17.8740,11138
17.8760,2448
17.8780,1456
17.8800,21061
17.8820,21189
17.8840,17172
17.8860,6737
17.8880,1808
17.8900,1760
17.8920,4433
17.8940,9362
17.8960,1968
17.8980,1936
17.9000,1552
17.9020,5345
17.9040,5089
17.9060,1712
17.9080,3120
17.9100,1312
17.9120,3504
17.9140,2288
17.9160,11538
17.9180,1616
17.9200,1696
17.9220,2576
17.9240,8930
17.9260,15411
17.9280,11506
17.9300,1200
17.9320,5713
17.9340,10066
17.9360,2912
17.9380,9170
17.9400,7649
17.9420,2304
17.9440,3376
17.9460,4801
17.9480,10338
17.9500,16932
17.9520,12130
17.9540,9314
17.9560,4000
17.9580,2336
17.9600,1936
17.9620,2464
17.9640,2880
17.9660,12963
17.9680,1920
17.9700,1328
17.9720,3424
17.9740,4225
17.9760,1440
17.9780,10082
17.9800,1360
17.9820,1584
17.9840,8177
17.9860,9138
17.9880,7377
17.9900,9906
17.9920,12611
17.9940,15955
17.9960,8882
17.9980,2656
18.0000,17444
18.0020,3440
18.0040,3200
18.0060,10642
18.0080,6897
18.0100,1920
18.0120,11410
18.0140,3552
18.0160,7441
18.0180,2016
18.0200,4321
18.0220,4193
18.0240,1744
18.0260,12226
18.0280,3040
18.0300,5345
18.0320,5073
18.0340,6673
18.0360,7681
18.0380,1808
18.0400,1232
18.0420,15059
18.0440,1840
18.0460,12707
18.0480,1888
18.0500,11906
18.0520,3072
18.0540,16836
18.0560,2224
18.0580,8081
18.0600,10162
18.0620,11074
18.0640,1584
18.0660,2128
18.0680,5377
18.0700,11362
18.0720,1920
18.0740,3424
18.0760,7057
18.0780,2480
18.0800,4032
18.0820,2336
18.0840,3808
18.0860,4609
18.0880,2320
18.0900,3136
18.0920,8161
18.0940,1920
18.0960,3856
18.0980,13155
18.1000,6529
18.1020,4577
18.1040,2496
18.1060,1488
18.1080,2592
18.1100,3040
18.1120,6177
18.1140,1600
18.1160,9634
18.1180,12467
18.1200,18516
18.1220,3232
18.1240,2128
18.1260,8770
18.1280,2224
18.1300,21061
18.1320,1376
18.1340,1888
18.1360,7745
18.1380,24565
18.1400,2256
18.1420,2560
18.1440,2240
18.1460,9090
18.1480,13443
18.1500,4753
18.1520,18836
18.1540,3984
18.1560,1600
18.1580,5553
18.1600,15187
18.1620,11602
18.1640,1664
18.1660,7089
18.1680,2320
18.1700,2992
18.1720,4193
18.1740,6817
18.1760,13251
18.1780,1696
18.1800,19620
18.1820,6977
18.1840,3152
18.1860,4177
18.1880,14467
18.1900,12627
18.1920,6657
18.1940,6977
18.1960,7041
18.1980,8514
18.2000,2688
18.2020,2944
18.2040,7457
18.2060,5569
18.2080,8418
18.2100,2768
18.2120,1728
18.2140,7745
18.2160,2480
18.2180,1600
18.2200,1152
18.2220,3856
18.2240,2624
18.2260,5585
18.2280,1440
18.2300,6657
18.2320,1856
18.2340,1568
18.2360,5713
18.2380,7281
18.2400,11858
18.2420,4193
18.2440,9106
18.2460,2960
18.2480,10370
18.2500,9922
18.2520,1968
18.2540,3840
18.2560,1936
18.2580,1664
18.2600,1232
18.2620,7729
18.2640,2336
18.2660,2496
18.2680,2432
18.2700,3360
18.2720,1824
18.2740,3616
18.2760,15187
18.2780,6449
18.2800,1264
18.2820,3760
18.2840,2096
18.2860,2080
18.2880,6849
18.2900,8498
18.2920,8882
18.2940,3600
18.2960,1712
18.2980,5169
18.3000,7073
18.3020,6289
18.3040,7857
18.3060,3120
18.3080,2672
18.3100,1488
18.3120,7393
18.3140,10402
18.3160,2784
18.3180,2512
18.3200,3264
18.3220,4225
18.3240,3600
18.3260,3536
18.3280,1696
18.3300,1664
18.3320,2304
18.3340,8210
18.3360,2576
18.3380,3168
18.3400,2448
18.3420,8177
18.3440,3488
18.3460,7121
18.3480,8290
18.3500,1632
18.3520,2320
18.3540,1920
18.3560,20757
18.3580,4497
18.3600,21141
18.3620,4449
18.3640,6785
18.3660,1680
18.3680,7265
18.3700,2992
18.3720,15715
18.3740,1248
18.3760,1168
18.3780,6353
18.3800,16420
18.3820,28550
18.3840,2256
18.3860,4064
18.3880,5809
18.3900,6577
18.3920,2768
18.3940,12323
18.3960,11922
18.3980,3280
18.4000,2080
18.4020,3552
18.4040,7697
18.4060,11010
18.4080,1504
18.4100,1824
18.4120,2592
18.4140,1376
18.4160,5793
18.4180,8530
18.4200,1664
18.4220,10786
18.4240,12531
18.4260,6305
18.4280,1312
18.4300,5425
18.4320,7873
18.4340,2528
18.4360,4241
18.4380,14851
18.4400,3392
18.4420,1696
18.4440,1632
18.4460,3152
18.4480,20308
18.4500,1632
18.4520,14483
18.4540,3392
18.4560,5185
18.4580,2704
18.4600,8466
18.4620,1920
18.4640,4129
18.4660,1232
18.4680,8177
18.4700,2368
18.4720,4064
18.4740,11746
18.4760,3280
18.4780,4577
18.4800,4032
18.4820,1808
18.4840,9794
18.4860,5265
18.4880,1824
18.4900,2992
18.4920,3136
18.4940,6465
18.4960,13715
18.4980,1488
18.5000,7297
18.5020,12819
18.5040,3904
18.5060,7713
18.5080,1584
18.5100,1952
18.5120,20517
18.5140,2576
18.5160,2240
18.5180,6833
18.5200,1312
18.5220,3520
18.5240,14611
18.5260,10050
18.5280,10722
18.5300,2976
18.5320,4000
18.5340,1088
18.5360,4737
18.5380,21925
18.5400,4064
18.5420,11794
18.5440,6529
18.5460,2064
18.5480,4385
18.5500,4193
18.5520,1616
18.5540,10978
18.5560,18516
18.5580,14355
18.5600,1600
18.5620,5489
18.5640,7297
18.5660,1952
18.5680,7361
18.5700,5473
18.5720,5121
18.5740,13955
18.5760,5425
18.5780,12435
18.5800,15747
18.5820,1184
18.5840,1984
18.5860,5361
18.5880,4161
18.5900,9442
18.5920,5201
18.5940,5681
18.5960,1616
18.5980,1552
18.6000,8049
18.6020,6881
18.6040,21061
18.6060,3360
18.6080,16532
18.6100,6465
18.6120,2592
18.6140,14483
18.6160,2272
18.6180,2352
18.6200,1424
18.6220,12771
18.6240,3392
18.6260,1168
18.6280,1216
18.6300,3088
18.6320,2192
18.6340,7425
18.6360,1648
18.6380,10130
18.6400,6321
18.6420,12323
18.6440,6961
18.6460,3680
18.6480,16035
18.6500,8370
18.6520,8546
18.6540,2256
18.6560,2768
18.6580,11938
18.6600,8177
18.6620,3664
18.6640,7681
18.6660,13107
18.6680,6481
18.6700,7329
18.6720,1168
18.6740,5521
18.6760,1536
18.6780,4289
18.6800,18756
18.6820,7953
18.6840,1424
18.6860,5985
18.6880,12018
18.6900,11842
18.6920,8722
18.6940,3760
18.6960,19300
18.6980,11698
18.7000,7377
18.7020,7441
18.7040,2144
18.7060,928
18.7080,1696
18.7100,1568
18.7120,6897
18.7140,10690
18.7160,14819
18.7180,1712
18.7200,1376
18.7220,7569
18.7240,4080
18.7260,2720
18.7280,3008
18.7300,1680
18.7320,8177
18.7340,4193
18.7360,6929
18.7380,2256
18.7400,3696
18.7420,1536
18.7440,12371
18.7460,13491
18.7480,11026
18.7500,4273
18.7520,3712
18.7540,2208
18.7560,24053
18.7580,3872
18.7600,1504
18.7620,1632
18.7640,1488
18.7660,3392
18.7680,25686
18.7700,25926
18.7720,1712
18.7740,8722
18.7760,3168
18.7780,1920
18.7800,8354
18.7820,17476
18.7840,19940
18.7860,7649
18.7880,19844
18.7900,6433
18.7920,4961
18.7940,1488
18.7960,8306
18.7980,10674
18.8000,5857
18.8020,9858
18.8040,2704
18.8060,1184
18.8080,1872
18.8100,4048
18.8120,1856
18.8140,11858
18.8160,2944
18.8180,1600
18.8200,2816
18.8220,2368
18.8240,5569
18.8260,8001
18.8280,1184
18.8300,1312
18.8320,1344
18.8340,1440
18.8360,2448
18.8380,1792
18.8400,7761
18.8420,15347
18.8440,16868
18.8460,1632
18.8480,2432
18.8500,2736
18.8520,13507
18.8540,3696
18.8560,2192
18.8580,11026
18.8600,7073
18.8620,1824
18.8640,16836
18.8660,7169
18.8680,10706
18.8700,13923
18.8720,2656
18.8740,6113
18.8760,11650
18.8780,4337
18.8800,10162
18.8820,1792
18.8840,3408
18.8860,3232
18.8880,2960
18.8900,3936
18.8920,16051
18.8940,11458
18.8960,2912
18.8980,3568
18.9000,4609
18.9020,28198
18.9040,26694
18.9060,4113
18.9080,21013
18.9100,2464
18.9120,10066
18.9140,2256
18.9160,7713
18.9180,8081
18.9200,6945
18.9220,3904
18.9240,1680
18.9260,2112
18.9280,10978
18.9300,22037
18.9320,9122
18.9340,3456
18.9360,8498
18.9380,10786
18.9400,2256
18.9420,1872
18.9440,7793
18.9460,1664
18.9480,4801
18.9500,11474
18.9520,11314
18.9540,14787
18.9560,13507
18.9580,7745
18.9600,6753
18.9620,1968
18.9640,2704
18.9660,6769
18.9680,10850
18.9700,1424
18.9720,6481
18.9740,3472
18.9760,1712
18.9780,13411
18.9800,3856
18.9820,3456
18.9840,3296
18.9860,5073
18.9880,18804
18.9900,4833
18.9920,1600
18.9940,3600
18.9960,4113
18.9980,11842
19.0000,13875
19.0020,9522
19.0040,5153
19.0060,1744
19.0080,1376
19.0100,7873
19.0120,1744
19.0140,1360
19.0160,6737
19.0180,10994
19.0200,17444
19.0220,1744
19.0240,14723
19.0260,13523
19.0280,1968
19.0300,2336
19.0320,2176
19.0340,9330
19.0360,3744
19.0380,4881
19.0400,1296
19.0420,1440
19.0440,3584
19.0460,1616
19.0480,2256
19.0500,1152
19.0520,5841
19.0540,1584
19.0560,1984
19.0580,2320
19.0600,1328
19.0620,5217
19.0640,2000
19.0660,3840
19.0680,2864
19.0700,8994
19.0720,6881
19.0740,1168
19.0760,2912
19.0780,2368
19.0800,3408
19.0820,1552
19.0840,6273
19.0860,2064
19.0880,4929
19.0900,1376
19.0920,1632
19.0940,12098
19.0960,8994
19.0980,9410
19.1000,3600
19.1020,3168
19.1040,5121
19.1060,3552
19.1080,19252
19.1100,11218
19.1120,4016
19.1140,9362
19.1160,2496
19.1180,3936
