Tempo(s),EMG_Value
0.003540,5969
0.003845,5761
0.003942,5969
0.004059,5857
0.004138,6145
0.004271,5809
0.004392,5569
0.004482,5569
0.004591,5601
0.004689,5585
0.004822,5249
0.005013,5057
0.005208,4881
0.005405,4833
0.005609,4689
0.005809,4673
0.006007,4561
0.006209,4449
0.006412,3888
0.006608,3536
0.006807,2880
0.007009,1920
0.007209,1328
0.007408,1088
0.007609,960
0.007807,992
0.008006,896
0.008210,704
0.008409,528
0.008609,304
0.008810,272
0.009010,304
0.009205,400
0.009410,384
0.009609,192
0.009811,0
0.010011,0
0.010212,0
0.010408,0
0.010605,0
0.010810,0
0.011009,0
0.011208,0
0.011410,0
0.011612,0
0.011808,0
0.012008,0
0.012210,576
0.012408,1472
0.012610,2336
0.012809,3264
0.013008,4369
0.013209,5265
0.013408,5681
0.013610,5809
0.013808,5857
0.014010,5841
0.014208,5713
0.014409,5793
0.014614,5969
0.014808,6017
0.015008,6113
0.015209,6273
0.015409,6257
0.015609,6081
0.015810,5985
0.016012,5969
0.016208,5953
0.016411,5985
0.016608,6049
0.016808,6065
0.017010,5969
0.017207,5953
0.017411,6065
0.017625,5985
0.017811,6209
0.018010,6737
0.018210,6817
0.018409,6801
0.018608,6897
0.018808,6929
0.019009,6737
0.019205,6689
0.019405,6689
0.019611,6625
0.019809,6577
0.020010,6289
0.020210,5937
0.020410,5857
0.020607,5569
0.020810,5505
0.021011,5297
0.021208,5009
0.021408,4913
0.021607,4625
0.021809,4529
0.022007,4561
0.022210,4561
0.022410,4433
0.022607,4497
0.022811,4369
0.023010,4016
0.023210,3504
0.023406,2992
0.023611,2064
0.023810,1424
0.024010,1072
0.024208,880
0.024408,944
0.024612,896
0.024810,768
0.025012,592
0.025209,352
0.025407,272
0.025606,256
0.025806,336
0.026010,512
0.026209,224
0.026412,0
0.026609,0
0.026810,0
0.027012,0
0.027208,0
0.027410,0
0.027609,0
0.027810,0
0.028013,0
0.028208,0
0.028408,0
0.028612,0
0.028806,336
0.029006,960
0.029209,1840
0.029408,2736
0.029609,3776
0.029810,4801
0.030009,5505
0.030210,5729
0.030406,5649
0.030610,5713
0.030808,5761
0.031009,5889
0.031208,5969
0.031408,6145
0.031607,6193
0.031808,6337
0.032009,6321
0.032207,6273
0.032409,6161
0.032611,6065
0.032809,5985
0.033008,6049
0.033208,6081
0.033407,6049
0.033610,6017
0.033808,6033
0.034008,6017
0.034206,5825
0.034408,5841
0.034610,6049
0.034807,6657
0.035009,6625
0.035209,6625
0.035406,6801
0.035612,6753
0.035809,6673
0.036009,6673
0.036204,6529
0.036412,6481
0.036605,6321
0.036811,5761
0.037011,5777
0.037208,5473
0.037409,5377
0.037608,5249
0.037811,5185
0.038008,5009
0.038209,4833
0.038407,4641
0.038609,4609
0.038808,4561
0.039012,4481
0.039210,4561
0.039408,4433
0.039610,4048
0.039811,3760
0.040008,3152
0.040212,2224
0.040406,1408
0.040607,1008
0.040811,992
0.041010,864
0.041213,800
0.041411,784
0.041607,464
0.041808,352
0.042011,336
0.042212,320
0.042409,272
0.042609,400
0.042813,240
0.043011,0
0.043209,0
0.043406,0
0.043609,0
0.043807,0
0.044008,0
0.044210,0
0.044407,0
0.044608,0
0.044811,0
0.045007,0
0.045208,0
0.045410,272
0.045610,768
0.045810,1616
0.046008,2368
0.046211,3504
0.046414,4545
0.046610,5265
0.046809,5473
0.047007,5633
0.047207,5665
0.047408,5761
0.047608,5761
0.047811,5809
0.048011,6097
0.048210,5969
0.048411,6193
0.048610,6321
0.048810,6145
0.049006,5889
0.049212,5905
0.049406,5889
0.049611,6033
0.049807,5937
0.050010,6065
0.050207,6065
0.050406,5857
0.050609,5857
0.050809,5825
0.051013,5937
0.051212,6033
0.051411,6609
0.051611,6561
0.051809,6625
0.052008,6817
0.052210,6801
0.052408,6529
0.052609,6465
0.052806,6417
0.053010,6497
0.053211,6433
0.053410,5905
0.053611,5777
0.053809,5681
0.054007,5441
0.054206,5441
0.054411,5201
0.054610,4929
0.054811,4689
0.055009,4577
0.055212,4449
0.055409,4337
0.055609,4241
0.055808,4257
0.056008,4257
0.056210,4161
0.056409,3728
0.056607,3216
0.056810,2448
0.057006,1552
0.057210,1088
0.057406,864
0.057610,848
0.057810,816
0.058012,720
0.058211,544
0.058411,336
0.058610,272
0.058810,352
0.059008,480
0.059211,560
0.059408,448
0.059608,64
0.059811,0
0.060010,0
0.060210,0
0.060408,0
0.060611,0
0.060808,0
0.061007,0
0.061209,0
0.061411,0
0.061612,0
0.061814,0
0.062008,192
0.062213,928
0.062406,1808
0.062610,2352
0.062811,3360
0.063007,4385
0.063211,5185
0.063409,5633
0.063611,5777
0.063807,5761
0.064009,5729
0.064207,5761
0.064407,5793
0.064610,5905
0.064809,6033
0.065010,6097
0.065211,6305
0.065407,6209
0.065607,6065
0.065807,6097
0.066008,6001
0.066212,5953
0.066412,5953
0.066611,6049
0.066808,5985
0.067007,5969
0.067212,5953
0.067407,5825
0.067609,5825
0.067808,5953
0.068009,6657
0.068212,6577
0.068411,6657
0.068606,6689
0.068812,6769
0.069012,6625
0.069211,6465
0.069408,6385
0.069610,6417
0.069808,6241
0.070009,6033
0.070210,5633
0.070411,5537
0.070612,5377
0.070810,5553
0.071010,5249
0.071209,4897
0.071409,4657
0.071607,4529
0.071811,4481
0.072010,4353
0.072207,4305
0.072405,4177
0.072608,4337
0.072806,4129
0.073007,3664
0.073212,3328
0.073404,2704
0.073610,1776
0.073814,1232
0.074007,976
0.074211,832
0.074411,768
0.074604,800
0.074811,656
0.075006,480
0.075209,288
0.075411,288
0.075605,256
0.075806,464
0.076005,560
0.076210,224
0.076411,0
0.076610,0
0.076812,0
0.077007,0
0.077212,0
0.077409,0
0.077611,0
0.077809,0
0.078006,0
0.078211,0
0.078408,0
0.078609,0
0.078808,352
0.079010,1312
0.079209,1936
0.079411,3024
0.079613,4193
0.079809,4929
0.080006,5457
0.080207,5617
0.080406,5537
0.080606,5569
0.080812,5681
0.081010,5729
0.081210,5761
0.081409,5825
0.081667,5985
0.081820,6321
0.082011,6225
0.082209,6177
0.082407,6113
0.082612,5969
0.082811,5969
0.083012,6049
0.083212,6081
0.083405,6065
0.083610,6017
0.083808,6017
0.084007,5921
0.084204,5857
0.084408,5841
0.084610,6097
0.084806,6593
0.085011,6593
0.085208,6625
0.085411,6705
0.085610,6657
0.085808,6625
0.086008,6561
0.086211,6417
0.086408,6417
0.086607,6241
0.086809,5825
0.087015,5681
0.087211,5553
0.087407,5393
0.087610,5377
0.087813,5041
0.088006,4833
0.088210,4641
0.088411,4609
0.088610,4449
0.088808,4433
0.089008,4353
0.089209,4353
0.089412,4385
0.089607,4016
0.089814,3536
0.090010,3040
0.090210,2128
0.090409,1456
0.090608,1088
0.090805,928
0.091009,880
0.091207,800
0.091409,656
0.091608,592
0.091812,352
0.092008,272
0.092208,192
0.092410,416
0.092606,400
0.092812,304
0.093009,0
0.093209,0
0.093404,0
0.093607,0
0.093809,0
0.094007,0
0.094209,0
0.094408,0
0.094609,0
0.094810,0
0.095008,0
0.095212,0
0.095410,176
0.095607,944
0.095806,1680
0.096006,2560
0.096212,3728
0.096405,4689
0.096610,5393
0.096807,5505
0.097012,5649
0.097209,5617
0.097408,5681
0.097609,5681
0.097809,5809
0.098011,6081
0.098207,6049
0.098407,6225
0.098608,6273
0.098812,6081
0.099008,6017
0.099207,5969
0.099408,6001
0.099607,6017
0.099808,6017
0.100005,6017
0.100209,6049
0.100410,5969
0.100610,5921
0.100810,5889
0.101010,5937
0.101210,6113
0.101410,6625
0.101611,6657
0.101809,6657
0.102010,6737
0.102206,6545
0.102410,6465
0.102610,6417
0.102809,6305
0.103009,6305
0.103207,6161
0.103410,5681
0.103608,5601
0.103807,5345
0.104006,5217
0.104212,5265
0.104408,5089
0.104611,4913
0.104811,4705
0.105008,4609
0.105209,4545
0.105488,4305
0.105610,4449
0.105810,4401
0.106014,4449
0.106210,4177
0.106405,3712
0.106610,3376
0.106810,2368
0.107007,1632
0.107205,1200
0.107410,1024
0.107609,992
0.107811,928
0.108009,896
0.108207,608
0.108408,416
0.108610,304
0.108809,288
0.109008,352
0.109207,512
0.109413,384
0.109609,0
0.109810,0
0.110007,0
0.110210,0
0.110409,0
0.110609,0
0.110810,0
0.111010,0
0.111208,0
0.111411,0
0.111610,0
0.111808,0
0.112007,0
0.112210,720
0.112408,1424
0.112609,2304
0.112808,3456
0.113013,4497
0.113210,5217
0.113411,5457
0.113611,5553
0.113808,5569
0.114006,5585
0.114208,5649
0.114410,5457
0.114610,6017
0.114806,5905
0.115008,5985
0.115211,6113
0.115409,5921
0.115612,5857
0.115808,5905
0.116009,5825
0.116210,5857
0.116406,5841
0.116609,5921
0.116810,6049
0.117006,5841
0.117210,5889
0.117408,5841
0.117608,5729
0.117808,5969
0.118011,6561
0.118208,6481
0.118408,6497
0.118608,6609
0.118810,6689
0.119008,6497
0.119209,6433
0.119412,6385
0.119609,6353
0.119809,6305
0.120011,5809
0.120208,5681
0.120405,5505
0.120613,5393
0.120809,5409
0.121011,5041
0.121210,4785
0.121406,4577
0.121610,4401
0.121812,4305
0.122009,4273
0.122208,4321
0.122412,4161
0.122609,4241
0.122807,4064
0.123009,3536
0.123205,3264
0.123411,2400
0.123611,1600
0.123808,1152
0.124010,976
0.124206,912
0.124411,912
0.124610,864
0.124809,720
0.125006,608
0.125206,464
0.125408,432
0.125612,448
0.125808,624
0.126010,544
0.126211,208
0.126410,0
0.126605,0
0.126809,0
0.127008,0
0.127207,0
0.127407,0
0.127611,0
0.127810,0
0.128008,0
0.128207,0
0.128410,0
0.128608,0
0.128805,688
0.129012,1632
0.129208,2112
0.129410,3168
0.129609,4000
0.129811,4961
0.130009,5425
0.130212,5569
0.130408,5601
0.130614,5713
0.130808,5649
0.131010,5585
0.131211,5889
0.131406,5841
0.131608,5857
0.131809,6177
0.132011,6065
0.132211,5953
0.132408,5857
0.132610,5809
0.132813,5905
0.133005,5841
0.133208,5809
0.133405,5857
0.133606,5809
0.133806,5793
0.134010,5793
0.134209,5729
0.134409,5857
0.134608,6497
0.134808,6449
0.135006,6593
0.135212,6737
0.135407,6753
0.135607,6705
0.135809,6497
0.136013,6417
0.136210,6353
0.136409,6369
0.136610,6177
0.136809,5681
0.137011,5617
0.137205,5345
0.137409,5297
0.137606,5073
0.137810,4897
0.138008,4609
0.138211,4497
0.138407,4433
0.138611,4417
0.138807,4321
0.139009,4305
0.139210,4257
0.139409,4241
0.139608,3568
0.139809,3296
0.140008,2784
0.140211,1936
0.140408,1312
0.140607,1008
0.140806,768
0.141007,800
0.141208,800
0.141409,608
0.141608,512
0.141807,288
0.142010,352
0.142206,272
0.142405,400
0.142610,416
0.142812,176
0.143009,0
0.143208,0
0.143407,0
0.143608,0
0.143805,0
0.144008,0
0.144208,0
0.144413,0
0.144609,0
0.144809,0
0.145009,0
0.145210,0
0.145410,416
0.145604,1232
0.145822,1856
0.146011,2784
0.146208,3952
0.146408,4865
0.146608,5457
0.146808,5649
0.147008,5681
0.147207,5745
0.147411,5553
0.147612,5665
0.147807,5825
0.148008,6017
0.148207,6017
0.148410,6225
0.148610,6305
0.148812,6081
0.149013,5985
0.149210,5985
0.149406,5921
0.149610,5953
0.149811,6033
0.150005,6033
0.150207,6017
0.150411,5921
0.150606,5889
0.150810,5905
0.151010,5905
0.151209,6081
0.151408,6577
0.151610,6689
0.151810,6721
0.152012,6737
0.152214,6721
0.152410,6609
0.152612,6529
0.152807,6481
0.153009,6417
0.153207,6209
0.153405,5777
0.153612,5665
0.153809,5425
0.154010,5377
0.154211,5329
0.154412,5041
0.154608,4817
0.154810,4705
0.155007,4545
0.155210,4417
0.155406,4353
0.155609,4353
0.155808,4321
0.156010,4353
0.156209,4161
0.156407,3616
0.156609,3136
0.156811,2352
0.157010,1520
0.157216,1184
0.157408,1040
0.157607,848
0.157808,848
0.158008,800
0.158207,528
0.158407,432
0.158609,304
0.158812,384
0.159010,400
0.159212,512
0.159408,448
0.159610,0
0.159810,0
0.160006,0
0.160208,0
0.160409,0
0.160609,0
0.160809,0
0.161010,0
0.161208,0
0.161412,0
0.161609,0
0.161810,0
0.162004,144
0.162212,784
0.162407,1616
0.162606,2384
0.162812,3424
0.163010,4545
0.163212,5217
0.163409,5425
0.163608,5601
0.163808,5553
0.164008,5553
0.164210,5569
0.164409,5585
0.164613,5873
0.164810,5793
0.165010,5937
0.165207,6049
0.165409,5921
0.165607,5825
0.165810,5905
0.166009,5809
0.166210,5793
0.166407,5841
0.166608,5825
0.166806,5905
0.167010,5857
0.167208,5777
0.167406,5777
0.167607,5809
0.167810,6049
0.168004,6497
0.168210,6497
0.168410,6609
0.168606,6577
0.168808,6721
0.169010,6673
0.169203,6417
0.169406,6305
0.169608,6337
0.169810,6161
0.170007,5697
0.170207,5537
0.170408,5345
0.170606,5185
0.170808,5073
0.171006,5121
0.171211,4897
0.171409,4561
0.171607,4449
0.171811,4481
0.172008,4417
0.172209,4385
0.172412,4321
0.172609,4321
0.172810,4305
0.173010,3680
0.173211,3200
0.173411,2432
0.173608,1504
0.173806,1072
0.174009,960
0.174208,832
0.174410,832
0.174608,768
0.174807,576
0.175007,432
0.175211,272
0.175410,224
0.175612,400
0.175808,400
0.176009,336
0.176211,112
0.176410,0
0.176610,0
0.176809,0
0.177012,0
0.177209,0
0.177406,0
0.177607,0
0.177810,0
0.178008,0
0.178212,0
0.178405,0
0.178608,0
0.178810,704
0.179008,1248
0.179209,2144
0.179406,3136
0.179610,4145
0.179809,5073
0.180012,5393
0.180208,5649
0.180406,5537
0.180610,5601
0.180811,5617
0.181013,5585
0.181206,5825
0.181409,5825
0.181608,5921
0.181808,6049
0.182009,6161
0.182207,5953
0.182410,5969
0.182611,5905
0.182809,5937
0.183008,5889
0.183209,5953
0.183408,5969
0.183608,5793
0.183809,5889
0.184009,5777
0.184210,5857
0.184409,5825
0.184608,6497
0.184811,6593
0.185010,6577
0.185208,6609
0.185411,6593
0.185611,6577
0.185812,6529
0.186009,6305
0.186214,6417
0.186405,6337
0.186609,6017
0.186811,5777
0.187010,5601
0.187207,5601
0.187407,5329
0.187608,5217
0.187810,5057
0.188007,4689
0.188213,4561
0.188410,4433
0.188611,4385
0.188810,4417
0.189010,4401
0.189208,4369
0.189408,4273
0.189609,3776
0.189805,3408
0.190009,2720
0.190212,1744
0.190408,1296
0.190608,1120
0.190810,960
0.191007,832
0.191210,864
0.191407,672
0.191611,496
0.191809,432
0.192011,320
0.192208,320
0.192412,464
0.192608,528
0.192807,224
0.193012,0
0.193210,0
0.193410,0
0.193609,0
0.193805,0
0.194009,0
0.194209,0
0.194411,0
0.194607,0
0.194809,0
0.195007,0
0.195209,0
0.195408,672
0.195610,1264
0.195814,2208
0.196012,2992
0.196212,3968
0.196410,4913
0.196606,5425
0.196804,5521
0.197005,5505
0.197210,5553
0.197407,5633
0.197607,5601
0.197808,5713
0.198009,5953
0.198208,6017
0.198409,6145
0.198608,6209
0.198809,6065
0.199008,5985
0.199210,5969
0.199409,5953
0.199611,5985
0.199809,6017
0.200008,6017
0.200208,5985
0.200410,5953
0.200609,5953
0.200808,5857
0.201007,5905
0.201208,6353
0.201408,6577
0.201606,6609
0.201808,6689
0.202008,6721
0.202208,6625
0.202410,6561
0.202607,6449
0.878103,0
0.878323,160
0.878457,640
0.878816,1808
0.878895,2496
0.879021,3440
0.879342,4673
0.879453,5409
0.879528,5665
0.879654,5873
0.879729,6065
0.879844,5985
0.879925,6081
0.880037,5889
0.880115,6049
0.880225,5905
0.880304,6065
0.880430,5857
0.880508,6097
0.880614,5921
0.880812,6065
0.881005,6065
0.881206,6209
0.881412,6305
0.881609,6177
0.881808,6097
0.882012,6033
0.882213,5985
0.882410,6033
0.882605,6081
0.882805,6145
0.883011,6097
0.883210,6049
0.883413,6065
0.883612,6017
0.883808,6033
0.884011,6113
0.884210,6785
0.884410,6689
0.884610,6689
0.884808,6833
0.885006,6785
0.885206,6721
0.885404,6593
0.885610,6449
0.885808,6417
0.886012,6337
0.886208,5969
0.886410,5841
0.886607,5473
0.886809,5313
0.887010,5137
0.887212,5185
0.887407,4929
0.887607,4753
0.887814,4689
0.888008,4433
0.888212,4417
0.888406,4369
0.888609,4273
0.888805,4289
0.889005,4177
0.889208,3632
0.889412,3120
0.889608,2496
0.889813,1488
0.890010,928
0.890208,768
0.890409,592
0.890608,560
0.890806,528
0.891012,256
0.891211,128
0.891409,32
0.891607,0
0.891807,48
0.892010,272
0.892211,176
0.892410,0
0.892609,0
0.892810,0
0.893010,0
0.893208,0
0.893408,0
0.893612,0
0.893810,0
0.894006,0
0.894211,0
0.894410,0
0.894609,0
0.894812,0
0.895011,576
0.895208,1232
0.895408,2128
0.895608,3216
0.895811,4289
0.896011,5121
0.896212,5617
0.896407,5809
0.896606,5681
0.896806,5713
0.897008,5793
0.897210,5569
0.897406,5825
0.897607,5857
0.897811,5953
0.898006,6209
0.898206,6049
0.898410,5969
0.898608,6017
0.898805,6017
0.899006,5905
0.899212,5985
0.899405,5953
0.899611,6017
0.899807,5873
0.900010,5937
0.900206,5953
0.900409,5905
0.900610,5985
0.900807,6497
0.901008,6593
0.901208,6529
0.901408,6673
0.901607,6657
0.901807,6577
0.902011,6529
0.902208,6401
0.902409,6369
0.902611,6305
0.902809,6049
0.903009,5713
0.903211,5633
0.903408,5345
0.903614,5345
0.903812,5185
0.904008,5137
0.904208,4817
0.904410,4577
0.904608,4561
0.904806,4337
0.905006,4305
0.905213,4385
0.905410,4225
0.905611,4273
0.905807,3792
0.906012,3472
0.906209,2768
0.906407,1696
0.906609,960
0.906809,736
0.907008,704
0.907208,624
0.907410,672
0.907611,480
0.907806,256
0.908007,16
0.908208,0
0.908410,48
0.908614,96
0.908808,224
0.909010,48
0.909207,0
0.909410,0
0.909609,0
0.909813,0
0.910008,0
0.910210,0
0.910410,0
0.910609,0
0.910811,0
0.911010,0
0.911208,0
0.911409,0
0.911610,496
0.911808,1104
0.912009,1856
0.912208,2864
0.912405,3920
0.912608,4897
0.912808,5297
0.913008,5537
0.913205,5553
0.913409,5521
0.913607,5601
0.913809,5665
0.914055,5937
0.914218,6145
0.914410,5921
0.914607,6161
0.914807,6241
0.915009,6081
0.915210,5921
0.915407,5873
0.915607,5825
0.915811,5825
0.916007,5873
0.916206,5889
0.916410,5889
0.916609,5825
0.916808,5825
0.917009,5857
0.917211,5809
0.917406,6049
0.917610,6593
0.917807,6641
0.918008,6673
0.918208,6705
0.918409,6593
0.918608,6593
0.918813,6497
0.919009,6529
0.919206,6369
0.919410,6289
0.919611,5681
0.919808,5793
0.920009,5553
0.920210,5505
0.920409,5249
0.920611,4993
0.920810,4689
0.921012,4513
0.921209,4433
0.921410,4177
0.921611,4257
0.921810,4145
0.922009,4113
0.922213,4129
0.922407,3760
0.922609,3344
0.922808,2896
0.923008,2064
0.923209,1248
0.923405,928
0.923612,688
0.923811,608
0.924009,656
0.924210,480
0.924407,352
0.924609,128
0.924811,16
0.925008,80
0.925210,80
0.925411,272
0.925612,64
0.925808,0
0.926005,0
0.926209,0
0.926407,0
0.926609,0
0.926809,0
0.927010,0
0.927211,0
0.927410,0
0.927608,0
0.927810,0
0.928009,0
0.928211,304
0.928412,1072
0.928608,1776
0.928812,2464
0.929009,3616
0.929208,4577
0.929411,5201
0.929609,5521
0.929812,5585
0.930010,5553
0.930206,5601
0.930408,5585
0.930610,5601
0.930813,5857
0.931010,5857
0.931207,5969
0.931409,6145
0.931608,6033
0.931807,5889
0.932006,5905
0.932207,5841
0.932411,5793
0.932609,5857
0.932804,5889
0.933010,5841
0.933212,5825
0.933409,5809
0.933606,5809
0.933807,5825
0.934013,5921
0.934209,6545
0.934414,6465
0.934609,6497
0.934806,6673
0.935011,6513
0.935206,6465
0.935414,6401
0.935609,6353
0.935810,6305
0.936010,6161
0.936208,5713
0.936410,5585
0.936610,5329
0.936812,5473
0.937013,5265
0.937211,5041
0.937407,4897
0.937608,4609
0.937807,4385
0.938009,4305
0.938206,4145
0.938406,4080
0.938609,4193
0.938809,4129
0.939011,4032
0.939214,3280
0.939406,3088
0.939607,2384
0.939806,1392
0.940007,864
0.940211,672
0.940411,512
0.940609,544
0.940810,480
0.941006,384
0.941208,80
0.941409,0
0.941610,0
0.941806,0
0.942005,96
0.942209,96
0.942409,0
0.942608,0
0.942812,0
0.943010,0
0.943211,0
0.943409,0
0.943607,0
0.943811,0
0.944009,0
0.944211,0
0.944409,0
0.944608,0
0.944805,0
0.945010,688
0.945210,1376
0.945408,2384
0.945608,3296
0.945808,4321
0.946010,5217
0.946210,5537
0.946409,5681
0.946605,5633
0.946804,5585
0.947008,5665
0.947207,5601
0.947412,5953
0.947611,5953
0.947807,6065
0.948012,6049
0.948210,5985
0.948412,5905
0.948607,5857
0.948807,5889
0.949004,5825
0.949211,5841
0.949412,6065
0.949607,5889
0.949810,5841
0.950011,5809
0.950212,5809
0.950408,5761
0.950607,5969
0.950809,6673
0.951007,6529
0.951210,6593
0.951411,6801
0.951610,6721
0.951806,6561
0.952009,6417
0.952209,6385
0.952409,6417
0.952612,6225
0.952808,5953
0.953008,5809
0.953209,5553
0.953408,5473
0.953611,5361
0.953813,5137
0.954010,5057
0.954210,4785
0.954409,4625
0.954609,4561
0.954812,4385
0.955008,4481
0.955205,4401
0.955407,4433
0.955608,4305
0.955809,3856
0.956006,3296
0.956206,2720
0.956408,1760
0.956613,1104
0.956808,880
0.957008,704
0.957210,576
0.957408,592
0.957606,464
0.957809,304
0.958006,144
0.958210,64
0.958407,144
0.958608,208
0.958810,208
0.959010,0
0.959207,0
0.959410,0
0.959608,0
0.959807,0
0.960007,0
0.960211,0
0.960406,0
0.960609,0
0.960810,0
0.961008,0
0.961212,0
0.961410,0
0.961607,336
0.961808,912
0.962007,2048
0.962210,3024
0.962410,3936
0.962609,4897
0.962809,5361
0.963010,5521
0.963212,5553
0.963409,5585
0.963609,5537
0.963810,5537
0.964013,5793
0.964210,5841
0.964408,5889
0.964606,6065
0.964807,6081
0.965008,5937
0.965209,5857
0.965408,5857
0.965608,5809
0.965809,5857
0.966008,5841
0.966213,5857
0.966410,5841
0.966612,5809
0.966807,5841
0.967007,5793
0.967211,5937
0.967406,6113
0.967609,6577
0.967810,6705
0.968010,6705
0.968208,6785
0.968410,6625
0.968608,6577
0.968805,6545
0.969008,6465
0.969210,6385
0.969409,6161
0.969606,5793
0.969811,5729
0.970008,5521
0.970209,5393
0.970409,5297
0.970608,5169
0.970810,4913
0.971012,4689
0.971206,4657
0.971412,4497
0.971605,4417
0.971806,4193
0.972006,4241
0.972210,4289
0.972411,3856
0.972612,3440
0.972812,2848
0.973006,1824
0.973206,1216
0.973410,704
0.973608,576
0.973809,528
0.974012,576
0.974210,400
0.974406,192
0.974607,32
0.974810,0
0.975013,0
0.975206,48
0.975410,160
0.975610,16
0.975808,0
0.976009,0
0.976208,0
0.976406,0
0.976610,0
0.976806,0
0.977010,0
0.977206,0
0.977407,0
0.977605,0
0.977808,0
0.978089,0
0.978224,256
0.978413,1024
0.978611,1824
0.978809,2752
0.979009,3840
0.979210,4881
0.979487,5457
0.979610,5569
0.979812,5521
0.980010,5649
0.980207,5569
0.980408,5537
0.980609,5633
0.980808,5937
0.981010,5953
0.981208,6081
0.981406,6081
0.981610,5937
0.981813,5985
0.982012,6017
0.982208,5777
0.982410,5841
0.982612,5889
0.982809,5969
0.983006,5969
0.983208,5953
0.983410,5889
0.983608,5777
0.983811,5793
0.984007,5905
0.984206,6465
0.984409,6481
0.984610,6561
0.984811,6673
0.985004,6561
0.985206,6433
0.985409,6337
0.985607,6353
0.985811,6321
0.986007,6129
0.986209,5793
0.986409,5649
0.986608,5521
0.986806,5201
0.987006,5089
0.987210,4833
0.987407,4673
0.987608,4497
0.987808,4401
0.988006,4129
0.988209,4193
0.988408,4193
0.988613,4177
0.988807,4113
0.989008,3920
0.989209,3360
0.989410,2896
0.989611,2048
0.989806,1248
0.990014,864
0.990206,672
0.990410,560
0.990612,528
0.990810,432
0.991011,272
0.991206,160
0.991410,0
0.991610,48
0.991810,96
0.992011,224
0.992208,176
0.992409,0
0.992605,0
0.992808,0
0.993010,0
0.993211,0
0.993408,0
0.993607,0
0.993809,0
0.994010,0
0.994208,0
0.994407,0
0.994606,0
0.994808,384
0.995011,1152
0.995208,1936
0.995410,2736
0.995611,3552
0.995809,4529
0.996012,5345
0.996207,5633
0.996411,5697
0.996608,5665
0.996811,5665
0.997010,5681
0.997208,5697
0.997412,6001
0.997611,6033
0.997810,6097
0.998011,6241
0.998210,6177
0.998408,6017
0.998608,6017
0.998809,5905
0.999007,5873
0.999205,5969
0.999407,5985
0.999608,6001
0.999812,5953
1.000009,5841
1.000209,5777
1.000406,5761
1.000609,5857
1.000810,6561
1.001008,6433
1.001206,6497
1.001405,6577
1.001607,6577
1.001811,6417
1.002010,6337
1.002207,6337
1.002409,6289
1.002608,6145
1.002809,5809
1.003010,5649
1.003210,5457
1.003409,5345
1.003607,5217
1.003807,4977
1.004007,4737
1.004211,4513
1.004412,4353
1.004610,4257
1.004807,4225
1.005009,4145
1.005209,4113
1.005408,4129
1.005612,4000
1.005808,3376
1.006011,3136
1.006210,2400
1.006412,1504
1.006614,1104
1.006809,656
1.007013,576
1.007211,576
1.007410,464
1.007612,304
1.007810,144
1.008007,16
1.008215,0
1.008408,32
1.008610,128
1.008808,128
1.009006,0
1.009210,0
1.009410,0
1.009607,0
1.009809,0
1.010008,0
1.010211,0
1.010414,0
1.010608,0
1.010807,0
1.011010,0
1.011208,0
1.011407,0
1.011608,576
1.011807,1280
1.012006,2272
1.012210,3168
1.012408,4273
1.012606,5185
1.012814,5457
1.013012,5585
1.013212,5553
1.013408,5601
1.013610,5585
1.013809,5649
1.014008,5889
1.014208,5889
1.014411,5969
1.014606,6161
1.014811,6065
1.015008,5937
1.015206,5969
1.015412,5969
1.015608,5921
1.015809,5937
1.016008,6017
1.016203,6097
1.016409,5969
1.016610,5953
1.016809,5937
1.017012,5889
1.017207,5953
1.017407,6609
1.017609,6593
1.017807,6545
1.018012,6561
1.018210,6673
1.018410,6449
1.018612,6385
1.018809,6321
1.019011,6417
1.019208,6289
1.019409,6081
1.019610,5729
1.019808,5441
1.020008,5441
1.020209,5425
1.020413,5137
1.020607,5009
1.020811,4689
1.021010,4657
1.021207,4481
1.021407,4273
1.021608,4241
1.021810,4241
1.022014,4193
1.022208,4145
1.022408,3632
1.022610,3200
1.022809,2560
1.023011,1744
1.023209,992
1.023411,768
1.023611,576
1.023808,544
1.024008,512
1.024210,304
1.024406,208
1.024610,0
1.024808,0
1.025008,80
1.025210,64
1.025409,112
1.025609,0
1.025808,0
1.026010,0
1.026211,0
1.026405,0
1.026609,0
1.026809,0
1.027009,0
1.027208,0
1.027408,0
1.027608,0
1.027810,0
1.028009,0
1.028206,544
1.028408,1056
1.028610,1888
1.028811,2848
1.029006,3984
1.029208,4977
1.029406,5425
1.029605,5217
1.029813,5633
1.030010,5633
1.030208,5633
1.030406,5665
1.030610,5841
1.030807,6033
1.031006,5841
1.031210,6097
1.031410,6065
1.031607,5857
1.031809,5841
1.032008,5793
1.032211,5729
1.032408,5841
1.032608,5921
1.032807,5841
1.033012,5921
1.033208,5793
1.033407,5841
1.033607,5697
1.033805,5729
1.034010,5969
1.034210,6497
1.034411,6577
1.034608,6705
1.034808,6609
1.035008,6529
1.035208,6449
1.035405,6353
1.035607,6353
1.035809,6225
1.036007,6065
1.036204,5681
1.036408,5537
1.036608,5281
1.036808,5313
1.037007,5265
1.037212,5009
1.037410,4833
1.037612,4673
1.037808,4609
1.038012,4481
1.038208,4401
1.038408,4401
1.038609,4321
1.038807,4241
1.039010,3920
1.039210,3472
1.039411,2992
1.039608,1984
1.039808,1328
1.040007,960
1.040209,768
1.040407,688
1.040607,640
1.040810,528
1.041013,384
1.041207,64
1.041408,128
1.041606,16
1.041811,144
1.042007,192
1.042211,32
1.042412,0
1.042607,0
1.042811,0
1.043008,0
1.043207,0
1.043409,0
1.043606,0
1.043809,0
1.044010,0
1.044208,0
1.044406,0
1.044610,0
1.044811,256
1.045009,816
1.045208,1584
1.045411,2512
1.045610,3456
1.045808,4625
1.046008,5361
1.046213,5569
1.046410,5585
1.046610,5649
1.046810,5633
1.047010,5633
1.047210,5601
1.047408,5937
1.047610,5889
1.047810,5953
1.048009,6145
1.048207,6017
1.048410,5889
1.048611,5921
1.048809,5841
1.049011,5841
1.049214,5905
1.049409,5953
1.049609,5969
1.049810,5905
1.050007,5921
1.050208,5921
1.050410,5889
1.050609,6081
1.050810,6641
1.051010,6561
1.051206,6609
1.051408,6737
1.051608,6721
1.051809,6689
1.052009,6577
1.052209,6545
1.052409,6433
1.052607,6321
1.052808,5841
1.053009,5793
1.053207,5569
1.053407,5521
1.053610,5473
1.053812,5201
1.054010,4961
1.054204,4449
1.054412,4369
1.054610,4289
1.054812,4305
1.055008,4289
1.055208,4145
1.055409,4177
1.055610,3920
1.055809,3504
1.056005,3104
1.056204,2176
1.056412,1328
1.056610,1008
1.056808,784
1.057011,640
1.057208,528
1.057412,416
1.057612,272
1.057810,96
1.058010,0
1.058208,144
1.058412,160
1.058613,288
1.058808,160
1.059009,0
1.059211,0
1.059406,0
1.059609,0
1.059810,0
1.060005,0
1.060208,0
1.060412,0
1.060608,0
1.060808,0
1.061010,0
1.061210,0
1.061408,176
1.061612,944
1.061812,1632
1.062010,2208
1.062208,3200
1.062409,4273
1.062614,5025
1.062806,5409
1.063007,5473
1.063213,5569
1.063411,5489
1.063610,5505
1.063810,5553
1.064007,5777
1.064210,5857
1.064409,5857
1.064611,6145
1.064807,6097
1.065008,5953
1.065210,5857
1.065411,5841
1.065607,5921
1.065810,5985
1.066008,5953
1.066210,6017
1.066409,5969
1.066607,5761
1.066812,5889
1.067013,5729
1.067206,5889
1.067410,6561
1.067609,6465
1.067808,6497
1.068011,6625
1.068208,6577
1.068405,6481
1.068612,6337
1.068808,6321
1.069010,6337
1.069206,6225
1.069410,5809
1.069606,5649
1.069810,5569
1.070012,5329
1.070211,5233
1.070407,5025
1.070610,4817
1.070810,4609
1.071007,4369
1.071207,4417
1.071413,4289
1.071608,4289
1.071812,4305
1.072011,4321
1.072206,4193
1.072406,3552
1.072611,3168
1.072809,2592
1.073006,1712
1.073207,1184
1.073412,848
1.073608,752
1.073808,704
1.074009,656
1.074210,544
1.074407,368
1.074604,112
1.074810,144
1.075007,224
1.075208,272
1.075414,336
1.075608,32
1.075808,0
1.076009,0
1.076207,0
1.076410,0
1.076609,0
1.680671,6017
1.680889,6305
1.681029,6209
1.681124,6337
1.681238,6177
1.681337,6145
1.681449,6049
1.681526,6177
1.681788,6081
1.681885,5953
1.681990,6145
1.682076,6065
1.682183,6177
1.682270,6049
1.682373,6113
1.682461,6033
1.682532,6113
1.682655,6065
1.682813,6097
1.683012,5969
1.683208,5969
1.683407,5953
1.683610,6113
1.683810,6689
1.684010,6577
1.684213,6753
1.684408,6753
1.684609,6785
1.684808,6689
1.685007,6625
1.685211,6577
1.685412,6529
1.685610,6369
1.685808,5953
1.686014,5889
1.686207,5697
1.686410,5649
1.686610,5377
1.686810,5089
1.687008,4865
1.687208,4737
1.687409,4577
1.687607,4449
1.687808,4353
1.688009,4273
1.688212,4273
1.688407,4225
1.688610,4097
1.688809,3296
1.689010,2896
1.689206,2128
1.689412,1248
1.689608,896
1.689807,720
1.690006,656
1.690210,688
1.690407,496
1.690608,432
1.690811,272
1.691010,224
1.691210,272
1.691408,272
1.691611,384
1.691808,304
1.692011,0
1.692206,0
1.692409,0
1.692609,0
1.692808,0
1.693010,0
1.693212,0
1.693408,0
1.693610,0
1.693811,0
1.694012,0
1.694207,0
1.694412,208
1.694605,896
1.694810,1312
1.695010,2432
1.695205,3344
1.695413,4513
1.695604,5297
1.695808,5585
1.696010,5793
1.696210,5649
1.696408,5569
1.696613,5745
1.696808,5761
1.697010,5921
1.697211,5985
1.697411,6145
1.697608,6065
1.697810,6113
1.698009,6033
1.698209,5953
1.698409,5985
1.698610,6081
1.698808,6049
1.699010,6145
1.699206,6033
1.699410,5921
1.699607,5841
1.699812,5873
1.700007,5937
1.700207,6017
1.700409,6753
1.700607,6529
1.700809,6433
1.701008,6753
1.701211,6753
1.701411,6481
1.701605,6369
1.701812,6481
1.702006,6241
1.702210,6241
1.702408,5745
1.702610,5681
1.702810,5393
1.703010,5281
1.703205,5233
1.703406,5073
1.703606,4929
1.703810,4657
1.704005,4561
1.704206,4497
1.704410,4321
1.704607,4289
1.704809,4305
1.705008,4305
1.705209,4193
1.705407,3536
1.705605,3232
1.705808,2512
1.706009,1552
1.706209,960
1.706408,800
1.706610,592
1.706808,672
1.707008,640
1.707210,384
1.707411,288
1.707608,48
1.707810,16
1.708009,128
1.708209,208
1.708411,208
1.708610,0
1.708809,0
1.709007,0
1.709208,0
1.709410,0
1.709607,0
1.709810,0
1.710010,0
1.710209,0
1.710412,0
1.710608,0
1.710810,0
1.711011,0
1.711209,448
1.711408,1232
1.711607,2016
1.711809,3088
1.712010,4257
1.712207,5089
1.712407,5473
1.712606,5473
1.712809,5585
1.713010,5569
1.713210,5553
1.713409,5681
1.713610,5905
1.713810,5905
1.714011,5905
1.714208,6097
1.714410,6065
1.714608,5921
1.714809,5857
1.715013,5969
1.715209,5825
1.715404,5889
1.715609,5889
1.715808,5873
1.716010,5889
1.716208,5937
1.716407,5873
1.716609,5713
1.716810,5905
1.717009,6465
1.717208,6497
1.717408,6545
1.717607,6545
1.717811,6673
1.718009,6561
1.718207,6497
1.718409,6417
1.718610,6449
1.718808,6225
1.719013,5937
1.719206,5553
1.719409,5521
1.719608,5377
1.719808,5297
1.720010,5169
1.720206,4785
1.720406,4625
1.720612,4417
1.720812,4369
1.721009,4225
1.721207,4225
1.721410,4193
1.721607,4225
1.721806,4097
1.722008,3680
1.722212,3264
1.722409,2688
1.722610,1696
1.722809,1072
1.723008,864
1.723208,672
1.723409,640
1.723609,592
1.723809,464
1.724013,288
1.724208,240
1.724407,128
1.724607,192
1.724807,192
1.725009,432
1.725207,64
1.725404,0
1.725612,0
1.725812,0
1.726008,0
1.726211,0
1.726405,0
1.726608,0
1.726807,0
1.727012,0
1.727207,0
1.727410,0
1.727609,0
1.727811,656
1.728010,1440
1.728207,2144
1.728407,3152
1.728609,4032
1.728807,4961
1.729007,5521
1.729208,5601
1.729408,5649
1.729611,5665
1.729805,5729
1.730008,5713
1.730210,5825
1.730405,6065
1.730611,6161
1.730811,6305
1.731012,6225
1.731206,6113
1.731412,5985
1.731610,5953
1.731806,5953
1.732011,6001
1.732209,5953
1.732411,6017
1.732610,5937
1.732810,5809
1.733012,5841
1.733207,5889
1.733412,5857
1.733608,6081
1.733809,6625
1.734008,6593
1.734208,6593
1.734408,6625
1.734604,6545
1.734810,6529
1.735010,6529
1.735210,6369
1.735405,6241
1.735609,6145
1.735806,5601
1.736009,5585
1.736207,5489
1.736411,5313
1.736609,5185
1.736812,4945
1.737012,4801
1.737202,4465
1.737409,4449
1.737605,4161
1.737811,4273
1.738008,4193
1.738210,4273
1.738409,4177
1.738610,3728
1.738805,3168
1.739010,2736
1.739210,1808
1.739410,1232
1.739611,960
1.739811,688
1.740011,656
1.740210,736
1.740411,560
1.740610,416
1.740810,304
1.741010,80
1.741209,176
1.741410,176
1.741609,224
1.741808,64
1.742010,0
1.742209,0
1.742412,0
1.742610,0
1.742809,0
1.743008,0
1.743209,0
1.743406,0
1.743610,0
1.743809,0
1.744010,0
1.744208,0
1.744413,320
1.744612,1056
1.744811,1792
1.745009,2656
1.745212,3776
1.745407,4705
1.745608,5249
1.745815,5681
1.746009,5649
1.746211,5713
1.746407,5761
1.746609,5505
1.746808,5617
1.747007,5889
1.747213,5777
1.747408,6049
1.747611,6081
1.747810,5969
1.748006,5905
1.748212,5825
1.748409,5825
1.748609,5809
1.748808,5889
1.749006,5953
1.749211,5857
1.749408,5825
1.749607,5793
1.749809,5761
1.750006,5729
1.750208,5953
1.750411,6417
1.750610,6417
1.750808,6561
1.751005,6593
1.751213,6577
1.751408,6545
1.751610,6401
1.751806,6369
1.752009,6353
1.752202,6193
1.752409,5697
1.752610,5585
1.752810,5361
1.753008,5281
1.753210,5185
1.753408,4993
1.753611,4705
1.753807,4529
1.754008,4465
1.754207,4305
1.754407,4193
1.754610,4273
1.754809,4193
1.755011,4241
1.755208,4048
1.755411,3472
1.755604,2992
1.755810,2208
1.756010,1360
1.756212,896
1.756413,912
1.756606,656
1.756809,720
1.757009,704
1.757207,384
1.757410,304
1.757606,144
1.757810,128
1.758012,192
1.758212,288
1.758409,256
1.758612,0
1.758813,0
1.759011,0
1.759208,0
1.759408,0
1.759612,0
1.759809,0
1.760009,0
1.760206,0
1.760408,0
1.760610,0
1.760808,0
1.761006,160
1.761210,672
1.761407,1472
1.761608,2304
1.761807,3328
1.762010,4417
1.762207,5313
1.762407,5553
1.762611,5665
1.762809,5585
1.763009,5729
1.763209,5521
1.763410,5537
1.763605,5857
1.763811,5969
1.764010,6033
1.764209,6145
1.764406,6049
1.764610,5889
1.764808,5953
1.765006,5905
1.765210,5921
1.765412,5921
1.765610,5985
1.765812,5921
1.766007,5873
1.766208,5889
1.766413,5905
1.766605,5841
1.766808,5953
1.767012,6641
1.767210,6481
1.767409,6625
1.767614,6609
1.767807,6673
1.768008,6593
1.768206,6401
1.768406,6465
1.768611,6417
1.768808,6289
1.769008,5985
1.769208,5761
1.769410,5569
1.769605,5521
1.769808,5345
1.770007,5377
1.770205,5009
1.770411,4801
1.770610,4657
1.770812,4449
1.771006,4257
1.771212,4385
1.771406,4257
1.771608,4193
1.771809,4305
1.772010,3584
1.772211,3248
1.772407,2480
1.772607,1680
1.772808,1056
1.773010,816
1.773211,672
1.773411,624
1.773607,688
1.773808,480
1.774008,304
1.774212,144
1.774403,64
1.774607,256
1.774811,304
1.775008,320
1.775213,0
1.775407,0
1.775607,0
1.775809,0
1.776008,0
1.776210,0
1.776408,0
1.776610,0
1.776812,0
1.777006,0
1.777213,0
1.777407,0
1.777607,0
1.777813,400
1.778008,1120
1.778210,1840
1.778409,2880
1.778610,3904
1.778809,4961
1.779005,5329
1.779207,5553
1.779408,5617
1.779608,5521
1.779807,5601
1.780005,5601
1.780211,5761
1.780409,5937
1.780610,5857
1.780811,6161
1.781012,6193
1.781210,5905
1.781411,5825
1.781611,5761
1.781887,5793
1.782009,6145
1.782211,6033
1.782409,6049
1.782608,5937
1.782807,5937
1.783008,5841
1.783206,5697
1.783408,5969
1.783608,6321
1.783809,6577
1.784011,6609
1.784206,6625
1.784408,6737
1.784610,6609
1.784809,6497
1.785007,6529
1.785212,6385
1.785408,6369
1.785606,6225
1.785810,5793
1.786005,5777
1.786210,5601
1.786412,5521
1.786612,5121
1.786808,5057
1.787009,4769
1.787212,4625
1.787416,4465
1.787611,4401
1.787808,4369
1.788010,4385
1.788210,4321
1.788409,4321
1.788608,3888
1.788809,3488
1.789010,2864
1.789211,1984
1.789409,1312
1.789607,944
1.789808,752
1.790009,800
1.790209,672
1.790410,576
1.790614,416
1.790809,224
1.791010,160
1.791213,224
1.791409,272
1.791610,352
1.791812,208
1.792005,0
1.792208,0
1.792406,0
1.792608,0
1.792804,0
1.793008,0
1.793208,0
1.793409,0
1.793606,0
1.793810,0
1.794007,0
1.794208,0
1.794413,464
1.794607,1232
1.794809,2080
1.795010,2880
1.795210,3840
1.795412,4753
1.795610,5521
1.795807,5633
1.796009,5633
1.796205,5537
1.796412,5617
1.796609,5761
1.796813,5633
1.797012,5953
1.797209,5841
1.797410,5953
1.797610,6065
1.797811,5969
1.798005,5889
1.798208,5889
1.798411,5889
1.798606,5825
1.798810,5985
1.799006,5841
1.799208,5985
1.799410,5889
1.799611,5825
1.799810,5841
1.800009,5665
1.800208,5841
1.800406,6545
1.800608,6449
1.800811,6561
1.801011,6545
1.801212,6481
1.801411,6385
1.801610,6353
1.801810,6225
1.802010,6241
1.802212,6049
1.802412,5553
1.802611,5633
1.802808,5409
1.803010,5393
1.803207,5233
1.803412,5009
1.803606,4641
1.803811,4577
1.804011,4257
1.804210,4353
1.804404,4145
1.804607,4241
1.804811,4257
1.805011,4305
1.805205,3808
1.805411,3424
1.805607,2992
1.805812,2112
1.806010,1280
1.806210,1056
1.806413,768
1.806607,544
1.806809,592
1.807006,544
1.807209,304
1.807411,192
1.807610,176
1.807809,256
1.808006,80
1.808210,208
1.808412,272
1.808610,0
1.808810,0
1.809013,0
1.809211,0
1.809408,0
1.809607,0
1.809810,0
1.810011,0
1.810212,0
1.810407,0
1.810610,0
1.810809,0
1.811006,128
1.811210,928
1.811407,1680
1.811613,2512
1.811808,3600
1.812009,4609
1.812210,5297
1.812409,5569
1.812609,5617
1.812811,5585
1.813013,5537
1.813210,5649
1.813404,5633
1.813607,5905
1.813809,5809
1.814008,6033
1.814210,6081
1.814408,5953
1.814609,5953
1.814807,5889
1.815006,5857
1.815209,5841
1.815411,5921
1.815607,5841
1.815810,5905
1.816007,5857
1.816209,5777
1.816416,5761
1.816606,5793
1.816806,5937
1.817009,6561
1.817209,6481
1.817408,6609
1.817611,6705
1.817812,6721
1.818009,6593
1.818208,6529
1.818411,6417
1.818611,6401
1.818812,6305
1.819010,5825
1.819208,5793
1.819411,5633
1.819608,5425
1.819811,5281
1.820009,5105
1.820209,4961
1.820409,4673
1.820607,4641
1.820809,4577
1.821006,4497
1.821210,4353
1.821405,4305
1.821608,4305
1.821807,4016
1.822009,3648
1.822209,3120
1.822410,2336
1.822608,1456
1.822806,1056
1.823010,896
1.823211,768
1.823409,640
1.823605,576
1.823808,304
1.824010,304
1.824207,64
1.824410,96
1.824610,160
1.824807,240
1.825006,272
1.825208,0
1.825408,0
1.825609,0
1.825808,0
1.826010,0
1.826207,0
1.826409,0
1.826609,0
1.826809,0
1.827012,0
1.827211,0
1.827406,0
1.827610,0
1.827811,432
1.828010,1120
1.828210,2016
1.828411,3104
1.828610,4145
1.828808,4993
1.829010,5393
1.829208,5585
1.829407,5521
1.829609,5569
1.829809,5665
1.830012,5729
1.830212,5921
1.830409,5889
1.830607,6097
1.830807,6241
1.831007,6193
1.831210,6049
1.831406,6081
1.831607,6017
1.831809,5873
1.832006,6033
1.832211,6049
1.832406,6097
1.832610,6049
1.832808,5969
1.833008,5969
1.833209,5857
1.833407,6049
1.833607,6641
1.833809,6721
1.834010,6705
1.834210,6737
1.834406,6721
1.834609,6577
1.834812,6401
1.835009,6337
1.835209,6385
1.835410,6321
1.835613,6033
1.835807,5713
1.836008,5553
1.836210,5345
1.836408,5457
1.836606,5217
1.836808,4945
1.837010,4689
1.837208,4593
1.837409,4433
1.837608,4321
1.837809,4241
1.838014,4289
1.838207,4241
1.838407,4145
1.838608,3776
1.838810,3376
1.839007,2608
1.839206,1632
1.839409,992
1.839609,848
1.839809,688
1.840008,576
1.840210,544
1.840409,384
1.840606,304
1.840808,64
1.841009,32
1.841212,192
1.841408,160
1.841607,272
1.841809,32
1.842012,0
1.842209,0
1.842412,0
1.842610,0
1.842808,0
1.843012,0
1.843206,0
1.843408,0
1.843610,0
1.843811,0
1.844008,0
1.844210,0
1.844408,256
1.844609,1088
1.844810,1808
1.845013,2864
1.845206,3920
1.845409,4993
1.845613,5457
1.845807,5505
1.846009,5505
1.846213,5713
1.846407,5521
1.846610,5601
1.846808,5697
1.847010,5841
1.847208,5777
1.847409,5969
1.847606,6017
1.847810,5889
1.848009,5873
1.848213,5921
1.848410,5697
1.848607,5729
1.848808,5857
1.849006,5969
1.849209,5777
1.849405,5761
1.849610,5777
1.849808,5713
1.850007,5841
1.850209,5905
1.850406,6497
1.850610,6481
1.850806,6561
1.851008,6641
1.851208,6465
1.851410,6433
1.851607,6321
1.851810,6353
1.852010,6401
1.852210,6193
1.852410,5665
1.852605,5537
1.852810,5345
1.853005,5345
1.853209,5041
1.853410,4833
1.853607,4609
1.853813,4465
1.854007,4289
1.854210,4257
1.854411,4241
1.854608,4289
1.854808,4417
1.855005,4113
1.855209,3680
1.855408,3328
1.855611,2896
1.855812,2000
1.856010,1120
1.856206,800
1.856407,720
1.856608,592
1.856805,704
1.857010,432
1.857208,288
1.857411,80
1.857611,144
1.857807,160
1.858009,208
1.858210,384
1.858409,272
1.858609,0
1.858812,0
1.859010,0
1.859208,0
1.859410,0
1.859612,0
1.859807,0
1.860011,0
1.860208,0
1.860409,0
1.860609,0
1.860809,0
1.861006,240
1.861208,1056
1.861406,1856
1.861610,2576
1.861809,3616
1.862003,4625
1.862208,5297
1.862407,5665
1.862608,5649
1.862808,5745
1.863008,5697
1.863210,5633
1.863404,5825
1.863607,6065
1.863810,6033
1.864009,6145
1.864206,6225
1.864408,6097
1.864609,5985
1.864808,5969
1.865007,5985
1.865210,5889
1.865407,5969
1.865609,5953
1.865812,6017
1.866008,5953
1.866207,5889
1.866408,5857
1.866611,5921
1.866810,5953
1.867010,6609
1.867210,6561
1.867410,6625
1.867606,6673
1.867814,6657
1.868012,6529
1.868206,6417
1.868412,6305
1.868608,6193
1.868809,6097
1.869007,5665
1.869206,5569
1.869409,5249
1.869606,5393
1.869806,5201
1.870010,5089
1.870209,4641
1.870405,4529
1.870609,4513
1.870807,4225
1.871008,4225
1.871208,4177
1.871408,4193
1.871606,4145
1.871808,3968
1.872008,3344
1.872206,3024
1.872410,2256
1.872611,1408
1.872810,1056
1.873009,672
1.873210,704
1.873411,608
1.873607,512
1.873821,480
1.874008,288
1.874210,208
1.874410,192
1.874608,256
1.874813,432
1.875009,336
1.875211,0
1.875405,0
1.875610,0
1.875806,0
1.876010,0
1.876211,0
1.876407,0
1.876609,0
1.876809,0
1.877010,0
1.877210,0
1.877409,0
1.877606,0
1.877805,848
1.878007,1568
1.878209,2432
1.878409,3376
1.878608,4273
1.878811,5089
1.879006,5473
2.480925,6033
2.481142,5953
2.481274,6113
2.481730,5953
2.481841,6209
2.481936,6257
2.482411,5825
2.482491,6049
2.482597,5969
2.482688,6001
2.482797,6049
2.482879,6081
2.482984,6081
2.483071,6177
2.483146,6209
2.483266,6833
2.483340,6721
2.483468,6657
2.483578,6721
2.483667,6689
2.483820,6801
2.484007,6673
2.484208,6609
2.484410,6673
2.484610,6369
2.484811,6497
2.485009,6417
2.485207,6305
2.485410,5857
2.485607,5601
2.485812,5633
2.486012,5377
2.486209,5249
2.486408,4961
2.486607,4753
2.486810,4577
2.487010,4449
2.487207,4273
2.487410,4225
2.487607,4241
2.487805,4129
2.488012,4257
2.488208,3968
2.488408,3312
2.488609,2720
2.488812,1808
2.489010,992
2.489209,752
2.489409,560
2.489608,480
2.489809,544
2.490008,384
2.490208,240
2.490414,0
2.490612,0
2.490808,32
2.491008,128
2.491209,160
2.491412,0
2.491607,0
2.491812,0
2.492008,0
2.492209,0
2.492405,0
2.492612,0
2.492807,0
2.493009,0
2.493210,0
2.493407,0
2.493610,0
2.493809,0
2.494011,304
2.494210,1040
2.494408,1760
2.494611,2752
2.494810,3776
2.495009,4929
2.495208,5393
2.495410,5665
2.495605,5713
2.495806,5745
2.496011,5729
2.496206,5793
2.496408,5921
2.496607,6017
2.496810,6049
2.497008,6209
2.497208,6305
2.497412,6193
2.497608,6065
2.497811,6017
2.498008,6033
2.498214,6065
2.498411,6177
2.498611,6081
2.498810,6033
2.499008,6017
2.499209,6017
2.499407,5953
2.499610,5969
2.499810,6161
2.500008,6737
2.500208,6705
2.500410,6737
2.500608,6833
2.500806,6753
2.501009,6721
2.501207,6577
2.501407,6545
2.501606,6577
2.501809,6401
2.502008,5921
2.502212,5809
2.502410,5553
2.502608,5393
2.502808,5457
2.503010,5201
2.503209,5041
2.503407,4705
2.503609,4641
2.503809,4417
2.504008,4385
2.504205,4273
2.504409,4273
2.504609,4353
2.504807,4048
2.505008,3568
2.505212,3024
2.505404,2144
2.505610,1264
2.505807,832
2.506015,672
2.506207,432
2.506407,480
2.506605,416
2.506810,208
2.507011,112
2.507208,0
2.507406,48
2.507610,64
2.507807,256
2.508008,96
2.508211,0
2.508409,0
2.508610,0
2.508804,0
2.509009,0
2.509206,0
2.509406,0
2.509608,0
2.509811,0
2.510010,0
2.510213,0
2.510407,0
2.510609,96
2.510806,784
2.511011,1504
2.511210,2448
2.511410,3536
2.511609,4641
2.511808,5409
2.512008,5697
2.512206,5793
2.512408,5713
2.512605,5729
2.512806,5729
2.513009,5825
2.513212,6113
2.513408,6065
2.513609,6161
2.513866,6225
2.514012,6193
2.514204,6081
2.514406,6033
2.514611,5969
2.514809,5969
2.515006,6097
2.515209,6065
2.515406,6065
2.515606,6065
2.515809,5953
2.516009,5905
2.516210,5937
2.516408,6081
2.516607,6689
2.516806,6625
2.517012,6673
2.517206,6833
2.517409,6737
2.517609,6721
2.517809,6593
2.518010,6529
2.518206,6465
2.518411,6289
2.518610,5905
2.518809,5793
2.519010,5617
2.519209,5569
2.519411,5377
2.519609,5169
2.519811,5009
2.520011,4769
2.520208,4529
2.520409,4513
2.520608,4369
2.520806,4241
2.521006,4177
2.521211,4193
2.521414,4145
2.521605,3456
2.521808,3136
2.522009,2368
2.522209,1504
2.522407,976
2.522608,672
2.522809,416
2.523008,448
2.523208,384
2.523406,272
2.523606,80
2.523810,0
2.524006,0
2.524210,0
2.524405,160
2.524611,16
2.524805,0
2.525010,0
2.525212,0
2.525410,0
2.525605,0
2.525810,0
2.526010,0
2.526210,0
2.526409,0
2.526607,0
2.526811,0
2.527012,0
2.527208,64
2.527409,800
2.527609,1424
2.527804,2304
2.528011,3232
2.528209,4177
2.528410,5089
2.528605,5457
2.528811,5697
2.529008,5697
2.529209,5617
2.529405,5713
2.529611,5665
2.529810,5809
2.530010,5953
2.530209,6033
2.530409,6193
2.530608,6209
2.530807,6065
2.531012,5985
2.531211,5969
2.531409,5969
2.531605,6033
2.531810,6017
2.532010,6049
2.532212,6033
2.532409,5857
2.532610,5825
2.532810,5793
2.533011,5889
2.533208,6449
2.533407,6497
2.533609,6529
2.533810,6593
2.534009,6561
2.534203,6577
2.534412,6465
2.534607,6353
2.534811,6337
2.535008,6289
2.535210,6113
2.535409,5665
2.535611,5617
2.535806,5473
2.536011,5329
2.536206,5217
2.536408,4881
2.536610,4609
2.536810,4369
2.537005,4401
2.537208,4273
2.537407,4193
2.537608,4177
2.537808,4161
2.538008,4193
2.538208,3536
2.538410,3072
2.538608,2512
2.538807,1552
2.539009,976
2.539208,688
2.539409,496
2.539610,448
2.539808,464
2.540009,240
2.540208,48
2.540412,16
2.540606,0
2.540808,0
2.541011,64
2.541206,176
2.541409,0
2.541606,0
2.541810,0
2.542008,0
2.542208,0
2.542408,0
2.542608,0
2.542809,0
2.543010,0
2.543207,0
2.543409,0
2.543611,0
2.543806,0
2.544010,448
2.544209,1088
2.544410,1952
2.544612,3008
2.544813,4000
2.545008,4865
2.545207,5361
2.545408,5633
2.545607,5617
2.545806,5553
2.546010,5649
2.546208,5681
2.546412,5809
2.546608,5985
2.546811,6017
2.547009,6257
2.547208,6193
2.547412,6049
2.547608,5953
2.547810,5905
2.548012,5889
2.548210,5985
2.548410,5953
2.548610,5841
2.548810,5889
2.549008,5809
2.549210,5793
2.549410,5729
2.549607,5793
2.549809,5937
2.550008,6529
2.550208,6529
2.550408,6593
2.550610,6673
2.550804,6609
2.551009,6481
2.551209,6417
2.551410,6465
2.551610,6385
2.551810,6209
2.552010,5777
2.552205,5681
2.552408,5505
2.552606,5345
2.552808,5297
2.553007,5025
2.553208,4769
2.553410,4577
2.553607,4561
2.553811,4369
2.554007,4321
2.554206,4337
2.554413,4113
2.554607,4273
2.554812,3984
2.555007,3536
2.555210,2960
2.555411,2016
2.555605,1264
2.555810,928
2.556008,608
2.556208,528
2.556407,576
2.556610,432
2.556810,320
2.557007,160
2.557209,16
2.557409,64
2.557611,128
2.557808,208
2.558010,160
2.558212,0
2.558410,0
2.558611,0
2.558807,0
2.559010,0
2.559209,0
2.559413,0
2.559610,0
2.559810,0
2.560007,0
2.560211,0
2.560410,0
2.560609,304
2.560809,896
2.561007,1680
2.561210,2608
2.561407,3632
2.561609,4737
2.561806,5457
2.562008,5729
2.562208,5729
2.562409,5681
2.562610,5777
2.562812,5777
2.563008,5809
2.563207,6001
2.563406,6033
2.563612,6193
2.563810,6289
2.564012,6145
2.564209,6049
2.564411,6065
2.564609,5969
2.564806,6017
2.565012,6033
2.565212,6001
2.565407,6049
2.565608,5985
2.565809,6017
2.566008,5905
2.566210,5937
2.566411,6145
2.566609,6657
2.566810,6545
2.567008,6625
2.567205,6689
2.567411,6689
2.567607,6561
2.567810,6529
2.568011,6497
2.568210,6417
2.568410,6369
2.568612,5889
2.568808,5793
2.569008,5505
2.569216,5425
2.569412,5329
2.569607,5121
2.569805,4801
2.570010,4609
2.570209,4625
2.570410,4481
2.570612,4385
2.570810,4353
2.571009,4289
2.571211,4193
2.571407,4097
2.571605,3424
2.571804,3120
2.572007,2256
2.572206,1296
2.572411,784
2.572608,576
2.572810,464
2.573008,432
2.573208,352
2.573408,272
2.573605,32
2.573808,0
2.574009,0
2.574208,48
2.574409,208
2.574610,160
2.574808,0
2.575007,0
2.575207,0
2.575410,0
2.575606,0
2.575810,0
2.576008,0
2.576210,0
2.576409,0
2.576609,0
2.576810,0
2.577010,0
2.577214,0
2.577408,656
2.577607,1376
2.577852,2336
2.578017,3344
2.578213,4401
2.578413,5297
2.578609,5505
2.578809,5617
2.579008,5665
2.579210,5585
2.579412,5633
2.579612,5697
2.579808,5905
2.580008,5985
2.580206,5873
2.580408,6225
2.580606,6017
2.580809,5857
2.581010,5873
2.581212,5777
2.581409,5777
2.581609,5857
2.581811,5809
2.582005,5889
2.582211,5841
2.582487,5761
2.582613,6017
2.582808,5857
2.583006,6017
2.583211,6673
2.583407,6593
2.583611,6705
2.583812,6849
2.584014,6817
2.584212,6609
2.584409,6577
2.584612,6545
2.584812,6417
2.585009,6161
2.585211,6033
2.585408,5601
2.585609,5457
2.585808,5441
2.586012,5249
2.586208,5041
2.586405,4785
2.586607,4625
2.586810,4481
2.587009,4417
2.587209,4273
2.587410,4193
2.587608,4305
2.587808,4273
2.588012,4241
2.588206,3504
2.588409,3184
2.588607,2512
2.588810,1488
2.589007,928
2.589209,576
2.589409,608
2.589610,560
2.589807,384
2.590008,352
2.590207,176
2.590407,0
2.590609,0
2.590805,0
2.591010,96
2.591209,176
2.591413,0
2.591610,0
2.591809,0
2.592010,0
2.592210,0
2.592409,0
2.592605,0
2.592808,0
2.593012,0
2.593208,0
2.593408,0
2.593610,0
2.593812,0
2.594004,656
2.594212,1424
2.594407,2112
2.594612,3024
2.594807,4064
2.595008,5009
2.595208,5441
2.595408,5681
2.595608,5585
2.595809,5585
2.596011,5681
2.596206,5585
2.596412,5585
2.596610,5937
2.596806,5889
2.597009,6225
2.597209,6225
2.597412,6049
2.597607,5953
2.597813,5969
2.598009,5873
2.598208,5953
2.598413,5841
2.598609,5825
2.598808,5857
2.599010,5921
2.599209,5873
2.599408,5729
2.599611,5937
2.599805,6113
2.600006,6609
2.600210,6497
2.600408,6561
2.600607,6737
2.600808,6593
2.601008,6561
2.601208,6481
2.601410,6481
2.601611,6417
2.601810,6241
2.602011,5761
2.602210,5665
2.602412,5553
2.602609,5473
2.602808,5377
2.603006,4993
2.603203,4705
2.603408,4577
2.603608,4401
2.603806,4289
2.604007,4048
2.604208,4177
2.604409,4048
2.604610,4145
2.604806,3712
2.605006,3168
2.605208,2624
2.605410,1760
2.605610,1024
2.605806,864
2.606008,656
2.606209,480
2.606406,400
2.606608,304
2.606807,304
2.607006,0
2.607209,0
2.607412,32
2.607610,80
2.607809,240
2.608006,0
2.608209,0
2.608412,0
2.608607,0
2.608809,0
2.609005,0
2.609210,0
2.609414,0
2.609608,0
2.609808,0
2.610008,0
2.610208,0
2.610406,0
2.610613,272
2.610808,1088
2.611010,1888
2.611210,2720
2.611410,3712
2.611608,4769
2.611810,5265
2.612009,5505
2.612208,5537
2.612408,5633
2.612610,5553
2.612808,5537
2.613005,5617
2.613209,5937
2.613408,5937
2.613612,6193
2.613807,6113
2.614010,6049
2.614212,5921
2.614408,5841
2.614608,5889
2.614808,5889
2.615010,5969
2.615208,5985
2.615408,6081
2.615606,6017
2.615810,5953
2.616006,5857
2.616210,5937
2.616408,5937
2.616607,6497
2.616811,6417
2.617010,6689
2.617207,6593
2.617411,6721
2.617606,6449
2.617808,6401
2.618007,6353
2.618207,6369
2.618407,6305
2.618611,5713
2.618809,5649
2.619008,5345
2.619210,5297
2.619409,5185
2.619607,4897
2.619808,4833
2.620010,4545
2.620209,4449
2.620414,4321
2.620610,4321
2.620808,4193
2.621007,4113
2.621210,4193
2.621409,3968
2.621610,3360
2.621813,2848
2.622007,2064
2.622209,1216
2.622409,848
2.622609,608
2.622809,528
2.623011,512
2.623212,384
2.623410,272
2.623609,64
2.623810,0
2.624010,0
2.624210,0
2.624408,192
2.624609,80
2.624810,0
2.625004,0
2.637098,2896
2.637208,3248
2.637288,3728
2.637393,3984
2.637477,4321
2.637582,4641
2.637670,4801
2.637747,4993
2.637872,4993
2.637946,5153
2.638062,4833
2.638143,4801
2.638257,4545
2.638332,4689
2.638442,4497
2.638608,3856
2.638814,2704
2.639010,2048
2.639209,1696
2.639408,1536
2.639610,1376
2.639807,1296
2.640012,1056
2.640207,704
2.640407,528
2.640610,336
2.640808,352
2.641008,464
2.641212,384
2.641410,32
2.641608,0
2.641851,0
2.642020,0
2.642207,0
2.642415,0
2.642609,0
2.642810,0
2.643011,0
2.643210,0
2.643408,0
2.643607,0
2.643809,0
2.644007,528
2.644208,1120
2.644406,1968
2.644610,3024
2.644808,4064
2.645015,5121
2.645209,5361
2.645411,5601
2.645610,5665
2.645811,5521
2.646008,5697
2.646212,5649
2.646411,5921
2.646609,5921
2.646809,5825
2.647011,6209
2.647206,6065
2.647411,5857
2.647608,6033
2.647811,5937
2.648005,5841
2.648211,5953
2.648410,5969
2.648611,6017
2.648810,5905
2.649007,5905
2.649210,5953
2.649412,5857
2.649607,5985
2.649807,6401
2.650004,6545
2.650212,6689
2.650409,6753
2.650609,6609
2.650810,6481
2.651008,6417
2.651209,6449
2.651413,6417
2.651608,6161
2.651808,5905
2.652011,5649
2.652209,5601
2.652410,5521
2.652608,5137
2.652810,5057
2.653013,4753
2.653211,4609
2.653409,4577
2.653609,4433
2.653805,4193
2.654007,4225
2.654208,4177
2.654410,4129
2.654611,4145
2.654811,3632
2.655007,3280
2.655208,2608
2.655411,1616
2.655610,1040
2.655811,816
2.656006,656
2.656208,656
2.656408,432
2.656605,384
2.656809,192
2.657007,32
2.657212,16
2.657405,0
2.657608,144
2.657808,144
2.658007,0
2.658210,0
2.658410,0
2.658609,0
2.658812,0
2.659010,0
2.659207,0
2.659410,0
2.659610,0
2.659810,0
2.660008,0
2.660208,0
2.660410,0
2.660606,608
2.660806,1280
2.661008,2128
2.661206,2784
2.661407,3856
2.661610,4769
2.661807,5281
2.662011,5585
2.662207,5521
2.662406,5553
2.662614,5681
2.662810,5585
2.663009,5761
2.663206,5985
2.663407,5969
2.663610,6161
2.663808,6193
2.664007,6049
2.664207,5985
2.664405,5809
2.664605,5889
2.664810,5905
2.665007,5873
2.665209,6017
2.665407,5825
2.665610,5761
2.665806,5809
2.666009,5681
2.666208,5809
2.666408,6049
2.666613,6673
2.666805,6529
2.667008,6721
2.667212,6817
2.667407,6577
2.667609,6593
2.667808,6449
2.668008,6353
2.668206,6305
2.668415,6209
2.668610,5793
2.668810,5697
2.669012,5553
2.669207,5265
2.669410,5281
2.669606,4881
2.669809,4545
2.670005,4449
2.670207,4321
2.670411,4193
2.670605,4161
2.670808,4048
2.671012,4064
2.671210,4113
2.671413,3648
2.671608,3232
2.671810,2912
2.672007,1872
2.672209,1168
2.672408,896
2.672609,512
2.672808,528
2.673014,528
2.673210,400
2.673407,160
2.673612,176
2.673808,144
2.674008,96
2.674206,208
2.674409,336
2.674606,192
2.674808,0
2.675008,0
2.675209,0
2.675412,0
2.675611,0
2.675806,0
2.676010,0
2.676209,0
2.676408,0
2.676610,0
2.676811,0
2.677012,0
2.677209,256
2.677408,992
2.677607,1840
2.677808,2480
2.678006,3664
2.678209,4673
2.678408,5313
2.678614,5697
2.678810,5665
2.679009,5681
2.679210,5697
2.679410,5665
2.679612,5697
2.679809,5969
2.680007,5969
2.680214,6161
2.680407,6321
2.680611,6113
2.680810,6017
2.681012,5969
2.681208,5905
2.681407,6017
2.681608,5937
2.681803,6017
2.682007,5985
2.682205,5809
2.682410,5889
2.682607,5729
2.682810,5825
2.683008,5969
2.683206,6561
2.683407,6593
2.683607,6625
2.683809,6705
2.684009,6689
2.684208,6577
2.684410,6465
2.684608,6449
2.684811,6321
2.685006,6193
2.685208,5697
2.685409,5633
2.685607,5441
2.685810,5297
2.686010,5249
2.686208,5041
2.686409,4833
2.686611,4609
2.686809,4513
2.687012,4369
2.687207,4369
2.687407,4241
2.687611,4273
2.687808,4289
2.688011,4113
2.688212,3488
2.688406,3008
2.688606,2128
2.688806,1280
2.689010,960
2.689211,688
2.689407,432
2.689606,384
2.689809,336
2.690013,160
3.328066,1360
3.328271,2496
3.328392,3360
3.328711,4689
3.328826,5217
3.328930,5521
3.329263,5505
3.329344,5841
3.329457,6161
3.329545,6273
3.329662,6193
3.329740,6241
3.329853,6241
3.329933,6417
3.330049,6353
3.330132,6433
3.330250,6225
3.330343,6145
3.330457,6065
3.330531,6193
3.330644,6097
3.330822,6033
3.331007,6001
3.331209,6081
3.331408,6113
3.331607,6081
3.331812,6049
3.332008,6081
3.332209,6097
3.332410,6033
3.332609,6177
3.332810,6737
3.333009,6753
3.333214,6657
3.333409,6785
3.333610,6833
3.333812,6721
3.334008,6721
3.334205,6705
3.334412,6593
3.334604,6465
3.334810,6305
3.335010,6001
3.335207,5665
3.335407,5601
3.335606,5537
3.335807,5537
3.336012,5201
3.336210,5041
3.336411,4817
3.336609,4593
3.336809,4625
3.337007,4529
3.337212,4641
3.337407,4497
3.337608,4417
3.337807,3664
3.338009,3392
3.338207,2832
3.338410,1888
3.338610,1168
3.338812,784
3.339014,480
3.339214,416
3.339410,224
3.339609,144
3.339807,0
3.340007,0
3.340210,0
3.340408,0
3.340609,0
3.340810,0
3.341007,0
3.341210,0
3.341409,0
3.341608,0
3.341805,0
3.342008,0
3.342206,0
3.342413,0
3.342607,0
3.342810,0
3.343009,0
3.343212,0
3.343407,0
3.343612,80
3.343810,672
3.344008,1312
3.344211,1952
3.344408,2784
3.344614,3888
3.344808,4689
3.345010,5361
3.345206,5585
3.345407,5681
3.345608,5649
3.345811,5697
3.346041,5825
3.346212,5889
3.346412,5953
3.346608,6177
3.346810,6289
3.347009,6193
3.347210,6017
3.347407,5969
3.347610,5953
3.347809,6065
3.348008,6177
3.348210,6225
3.348408,6097
3.348609,6017
3.348811,6097
3.349009,5969
3.349208,6017
3.349413,6241
3.349608,6753
3.349810,6737
3.350007,6705
3.350211,6753
3.350408,6705
3.350609,6785
3.350809,6705
3.351007,6593
3.351207,6545
3.351407,6369
3.351606,5953
3.351807,5969
3.352010,5793
3.352208,5713
3.352410,5585
3.352606,5217
3.352809,4993
3.353008,4881
3.353208,4673
3.353411,4657
3.353612,4705
3.353810,4561
3.354009,4641
3.354209,4529
3.354411,4113
3.354608,3504
3.354806,3056
3.355008,2144
3.355206,1376
3.355409,944
3.355608,576
3.355809,416
3.356007,256
3.356213,176
3.356408,0
3.356608,0
3.356807,0
3.357009,0
3.357208,0
3.357406,0
3.357607,0
3.357809,0
3.358010,0
3.358209,0
3.358409,0
3.358609,0
3.358808,0
3.359005,0
3.359213,0
3.359410,0
3.359609,0
3.359808,0
3.360008,0
3.360206,0
3.360407,128
3.360612,720
3.360810,1600
3.361005,2528
3.361211,3520
3.361408,4417
3.361611,5073
3.361808,5425
3.362008,5441
3.362211,5585
3.362408,5633
3.362606,5681
3.362808,6017
3.363013,5969
3.363212,6145
3.363411,6193
3.363609,6065
3.363808,6065
3.364007,6081
3.364210,6049
3.364410,5953
3.364609,6049
3.364809,6097
3.365008,6145
3.365211,6065
3.365403,6113
3.365612,5937
3.365810,6033
3.366008,6177
3.366209,6625
3.366406,6545
3.366610,6593
3.366808,6801
3.367010,6785
3.367203,6705
3.367413,6657
3.367610,6593
3.367811,6593
3.368010,6449
3.368205,5985
3.368407,5889
3.368610,5665
3.368809,5505
3.369009,5441
3.369209,5249
3.369412,5057
3.369608,4817
3.369808,4673
3.370008,4689
3.370209,4529
3.370408,4609
3.370610,4369
3.370813,4353
3.371008,4289
3.371210,3568
3.371406,3248
3.371609,2432
3.371812,1440
3.372008,800
3.372210,576
3.372410,384
3.372607,304
3.372812,160
3.373006,0
3.373211,0
3.373408,0
3.373613,0
3.373807,0
3.374009,0
3.374208,0
3.374408,0
3.374610,0
3.374812,0
3.375007,0
3.375207,0
3.375410,0
3.375610,0
3.375811,0
3.376008,0
3.376208,0
3.376409,0
3.376608,0
3.376806,0
3.377008,0
3.377212,480
3.377408,1168
3.377608,2192
3.377808,3168
3.378011,4129
3.378211,4897
3.378408,5313
3.378611,5505
3.378811,5569
3.379009,5633
3.379208,5553
3.379407,5889
3.379608,5857
3.379808,5937
3.380013,6273
3.380206,6161
3.380407,5937
3.380610,5985
3.380810,5889
3.381009,5857
3.381207,5857
3.381406,5873
3.381605,5905
3.381809,5985
3.382008,5841
3.382210,5841
3.382414,5921
3.382611,6049
3.382812,6609
3.383007,6497
3.383208,6561
3.383410,6705
3.383607,6705
3.383807,6529
3.384010,6369
3.384209,6337
3.384406,6321
3.384615,6337
3.384808,6081
3.385009,5825
3.385207,5585
3.385406,5537
3.385607,5377
3.385809,5185
3.386009,4913
3.386211,4865
3.386408,4705
3.386612,4625
3.386808,4545
3.387007,4529
3.387213,4561
3.387407,4273
3.387607,4321
3.387805,3728
3.388007,3376
3.388212,2592
3.388409,1520
3.388610,928
3.388810,608
3.389006,432
3.389210,352
3.389407,288
3.389611,32
3.389811,0
3.390008,0
3.390211,0
3.390412,0
3.390608,0
3.390807,0
3.391008,0
3.391213,0
3.391409,0
3.391608,0
3.391814,0
3.392011,0
3.392207,0
3.392408,0
3.392613,0
3.392809,0
3.393010,0
3.393207,0
3.393406,0
3.393607,16
3.393806,480
3.394009,960
3.394205,1920
3.394408,2816
3.394607,4000
3.394808,4817
3.395009,5249
3.395210,5457
3.395408,5521
3.395607,5585
3.395809,5633
3.396010,5665
3.396210,5889
3.396409,5857
3.396611,6145
3.396813,6225
3.397008,5985
3.397210,6081
3.397411,6081
3.397607,5825
3.397808,5825
3.398006,5825
3.398209,5937
3.398407,5873
3.398610,5857
3.398805,5841
3.399007,5761
3.399208,5825
3.399410,6353
3.399609,6497
3.399809,6561
3.400007,6577
3.400210,6673
3.400411,6593
3.400613,6481
3.400808,6417
3.401012,6401
3.401210,6321
3.401407,6161
3.401607,5729
3.401806,5681
3.402008,5553
3.402213,5425
3.402412,5281
3.402608,4961
3.402806,4785
3.403011,4625
3.403209,4529
3.403406,4481
3.403608,4353
3.403808,4449
3.404008,4257
3.404208,4305
3.404407,3792
3.404607,3360
3.404808,2832
3.405007,1872
3.405208,1104
3.405411,816
3.405608,560
3.405808,448
3.406010,352
3.406203,208
3.406407,0
3.406608,0
3.406808,0
3.407007,0
3.407210,0
3.407408,0
3.407608,0
3.407812,0
3.408008,0
3.408207,0
3.408407,0
3.408610,0
3.408812,0
3.409008,0
3.409208,0
3.409410,0
3.409610,0
3.409807,0
3.410019,0
3.410217,0
3.410411,560
3.410611,1040
3.410806,1728
3.411012,2720
3.411206,3664
3.411410,4609
3.411609,5185
3.411812,5521
3.412010,5569
3.412208,5729
3.412409,5633
3.412607,5681
3.412806,6097
3.413005,5953
3.413211,6145
3.413407,6209
3.413608,6145
3.413810,6049
3.414010,5969
3.414208,5873
3.414405,5905
3.414609,5937
3.414808,6065
3.415009,6081
3.415210,6097
3.415408,6113
3.415609,5937
3.415811,5937
3.416011,6177
3.416207,6689
3.416411,6625
3.416606,6737
3.416810,6785
3.417011,6737
3.417207,6657
3.417409,6641
3.417608,6625
3.417810,6577
3.418007,6481
3.418211,5969
3.418407,5953
3.418608,5729
3.418811,5585
3.419007,5473
3.419209,5313
3.419412,5073
3.419610,4865
3.419805,4833
3.420009,4689
3.420210,4609
3.420408,4545
3.420607,4417
3.420811,4417
3.421006,4113
3.421206,3488
3.421406,3008
3.421611,2240
3.421808,1328
3.422008,832
3.422208,528
3.422410,400
3.422611,384
3.422810,208
3.423010,0
3.423208,0
3.423408,0
3.423606,0
3.423812,0
3.424011,0
3.424209,0
3.424407,0
3.424607,0
3.424807,0
3.425009,0
3.425209,0
3.425411,0
3.425608,0
3.425807,0
3.426010,0
3.426211,0
3.426406,0
3.426609,0
3.426812,0
3.427013,192
3.427210,640
3.427408,1456
3.427607,2336
3.427811,3456
3.428008,4401
3.428209,5121
3.428411,5521
3.428609,5601
3.428806,5665
3.429007,5777
3.429286,5777
3.429410,6017
3.429609,5953
3.429810,6065
3.430008,6289
3.430209,6241
3.430407,6113
3.430610,6097
3.430810,6081
3.431009,6065
3.431208,6081
3.431410,6161
3.431609,6097
3.431813,6017
3.432011,6161
3.432208,6081
3.432407,5969
3.432608,6113
3.432811,6801
3.433010,6529
3.433206,6657
3.433410,6833
3.433609,6801
3.433809,6625
3.434008,6625
3.434208,6561
3.434408,6497
3.434610,6401
3.434808,6113
3.435005,5921
3.435212,5665
3.435412,5633
3.435607,5665
3.435807,5265
3.436010,4993
3.436206,4881
3.436408,4737
3.436607,4689
3.436811,4497
3.437006,4545
3.437208,4513
3.437406,4321
3.437612,4257
3.437808,3712
3.438010,3296
3.438206,2496
3.438408,1568
3.438606,1056
3.438810,816
3.439009,544
3.439210,400
3.439409,336
3.439609,48
3.439808,0
3.440012,0
3.440210,0
3.440408,0
3.440611,0
3.440813,0
3.441010,0
3.441205,0
3.441409,0
3.441604,0
3.441808,0
3.442009,0
3.442209,0
3.442411,0
3.442612,0
3.442804,0
3.443004,0
3.443211,0
3.443411,0
3.443611,0
3.443811,208
3.444008,1296
3.444210,1920
3.444410,2944
3.444610,4000
3.444814,4865
3.445005,5297
3.445208,5473
3.445410,5601
3.445610,5601
3.445808,5553
3.446005,5857
3.446209,5905
3.446410,5889
3.446607,6081
3.446810,6033
3.447008,5953
3.447207,6017
3.447408,5921
3.447611,5985
3.447809,6033
3.448012,6113
3.448209,6049
3.448407,5841
3.448611,5921
3.448807,5889
3.449014,5889
3.449207,5937
3.449408,6481
3.449610,6481
3.449811,6481
3.450008,6577
3.450207,6625
3.450408,6497
3.450607,6497
3.450815,6401
3.451008,6417
3.451207,6305
3.451409,6161
3.451612,5825
3.451810,5825
3.452011,5553
3.452206,5409
3.452408,5121
3.452611,5105
3.452805,4897
3.453007,4705
3.453210,4657
3.453410,4545
3.453610,4449
3.453808,4449
3.454008,4401
3.454209,4433
3.454408,3808
3.454605,3472
3.454808,2832
3.455005,1872
3.455209,1152
3.455414,816
3.455605,592
3.455808,480
3.456008,368
3.456208,208
3.456410,0
3.456613,0
3.456808,0
3.457008,0
3.457209,0
3.457409,0
3.457611,0
3.457808,0
3.458010,0
3.458206,0
3.458410,0
3.458606,0
3.458808,0
3.459005,0
3.459208,0
3.459406,0
3.459609,0
3.459809,0
3.460014,0
3.460208,0
3.460409,608
3.460608,1248
3.460806,1936
3.461005,2848
3.461207,3856
3.461410,4673
3.461608,5281
3.461806,5521
3.462008,5633
3.462209,5649
3.462407,5681
3.462611,5761
3.462810,6001
3.463008,6033
3.463208,6209
3.463410,6241
3.463609,6081
3.463809,6033
3.464010,6081
3.464207,5969
3.464410,5969
3.464610,6049
3.464808,6161
3.465014,6049
3.465205,6033
3.465411,6081
3.465609,5985
3.465807,5873
3.466011,6209
3.466208,6657
3.466408,6689
3.466607,6673
3.466813,6737
3.467007,6561
3.467211,6497
3.467409,6385
3.467610,6449
3.467810,6225
3.468007,6145
3.468206,5697
3.468408,5729
3.468611,5521
3.468808,5457
3.469007,5505
3.469210,5265
3.469407,4993
3.469612,4657
3.469810,4641
3.470007,4401
3.470209,4417
3.470408,4513
3.470607,4417
3.470807,4353
3.471012,3888
3.471210,3376
3.471410,3040
3.471605,1984
3.471804,1264
3.472006,944
3.472211,656
3.472410,560
3.472612,544
3.472808,304
3.473006,48
3.473208,0
3.473407,0
3.473608,0
3.473807,0
3.474058,0
3.474215,0
3.474410,0
3.474609,0
3.474810,0
3.475010,0
3.475207,0
3.475410,0
3.475610,0
3.475810,0
3.476009,0
3.476212,0
3.476410,0
3.476607,0
3.476806,0
3.477011,416
3.477211,992
3.477410,1856
3.477605,2656
3.477806,3552
3.478014,4513
3.478214,5249
3.478410,5473
3.478611,5585
3.478809,5681
3.479007,5585
3.479211,5665
3.479407,5825
3.479610,5937
3.479804,5921
3.480009,6097
3.480208,5953
3.480408,6049
3.480610,5969
3.480812,5857
3.481012,5857
3.481206,6033
3.481410,5937
3.481609,6017
3.481809,5905
3.482006,5921
3.482208,5905
3.482409,5857
3.482613,6017
3.482805,6561
3.483011,6545
3.483208,6609
3.483410,6705
3.483608,6705
3.483811,6625
3.484008,6529
3.484212,6481
3.484412,6481
3.484610,6305
3.484809,5937
3.485010,5889
3.485207,5777
3.485409,5633
3.485609,5521
3.485809,5265
3.486011,5121
3.486210,4993
3.486410,4801
3.486606,4705
3.486809,4673
3.487012,4529
3.487206,4433
3.487409,4561
3.487610,4305
3.487808,3648
3.488011,3312
3.488209,2576
3.488411,1680
3.488609,1024
3.488808,832
3.489011,544
3.489209,384
3.489410,224
3.489608,0
3.489809,0
3.490007,0
3.490207,0
3.490409,0
3.490609,0
3.490810,0
3.491008,0
3.491209,0
3.491410,0
3.491608,0
3.491810,0
3.492011,0
3.492211,0
3.492409,0
3.492607,0
3.492811,0
3.493008,0
3.493207,0
3.493408,0
3.493611,144
3.493810,592
3.494009,1344
3.494206,2192
3.494410,3360
3.494610,4273
3.494812,5073
3.495012,5457
3.495209,5537
3.495413,5569
3.495605,5345
3.495810,5553
3.496005,5761
3.496207,5713
3.496407,6065
3.496611,6049
3.496808,6033
3.497012,5889
3.497211,5921
3.497407,5889
3.497607,5793
3.497809,5809
3.498006,5969
3.498209,6017
3.498407,6049
3.498608,5953
3.498810,5953
3.499006,5905
3.499206,5985
3.499408,6753
3.499612,6561
3.499810,6689
3.500009,6673
3.500205,6689
3.500409,6673
3.500610,6497
3.500808,6449
3.501010,6449
3.501211,6465
3.501413,6209
3.501609,5953
3.501807,5793
3.502011,5617
3.502209,5473
3.502409,5409
3.502609,5121
3.502807,4881
3.503007,4833
3.503209,4737
3.503406,4561
3.503609,4545
3.503810,4433
3.504011,4433
3.504209,4369
3.504406,3856
3.504607,3424
3.504809,2832
3.505008,1920
3.505211,1168
3.505403,816
3.505609,560
3.505808,528
3.506010,288
3.506210,176
3.506408,0
3.506612,0
3.506812,0
3.507006,0
3.507205,0
3.507405,0
3.507611,0
3.507808,0
3.508010,0
3.508209,0
3.508407,0
3.508609,0
3.508807,0
3.509008,0
3.509209,0
3.509410,0
3.509606,0
3.509806,0
3.510008,0
3.510209,0
3.510406,464
3.510612,1008
3.510809,1824
3.511011,2832
3.511207,3808
3.511407,4625
3.511608,5105
3.511804,5473
3.512014,5585
3.512209,5569
3.512408,5601
3.512608,5841
3.512813,5905
3.513010,5825
3.513206,6017
3.513410,6161
3.513610,5969
3.513809,5937
3.514009,5921
3.514212,5825
3.514407,5921
3.514610,5889
3.514808,5953
3.515009,5969
3.515207,5857
3.515408,5809
3.515610,5857
3.515808,5921
3.516008,6113
3.516211,6465
3.516409,6545
3.516607,6625
3.516811,6657
3.517007,6609
3.517210,6497
3.517410,6449
3.517606,6433
3.517809,6401
3.518008,6241
3.518207,5889
3.518407,5825
3.518608,5649
3.518806,5457
3.519008,5409
3.519208,5041
3.519411,4929
3.519612,4913
3.519808,4769
3.520011,4737
3.520210,4689
3.520408,4529
3.520608,4481
3.520807,4513
3.521010,4129
3.521210,3680
3.521408,3120
3.521608,2096
3.521810,1280
3.522008,928
3.522209,736
3.522407,528
3.522610,512
3.522809,272
3.523008,64
3.523207,0
3.523409,0
3.523608,0
3.523809,0
3.524010,0
3.524211,0
3.524407,0
3.524608,0
3.524809,0
3.525012,0
3.525209,0
3.525408,0
3.525605,0
3.525807,0
3.526010,0
3.526207,0
3.526407,0
4.133712,6577
4.133920,6369
4.134049,6401
4.134131,6369
4.134249,6273
4.134346,6305
4.134461,6241
4.134536,6097
4.134646,6065
4.134731,6033
4.134847,5873
4.134927,5905
4.135035,5809
4.135115,5857
4.135221,5681
4.135299,5809
4.135417,5649
4.135612,5313
4.135812,5073
4.136011,4881
4.136211,4721
4.136407,4657
4.136610,4609
4.136810,4609
4.137009,4529
4.137209,4385
4.137409,3984
4.137610,3760
4.137809,3408
4.138005,2704
4.138208,2016
4.138411,1808
4.138607,1632
4.138812,1584
4.139010,1616
4.139204,1472
4.139412,1296
4.139610,976
4.139805,1040
4.140010,1120
4.140209,1152
4.140410,1280
4.140605,1104
4.140810,0
4.141007,0
4.141209,0
4.141409,0
4.141610,0
4.141806,0
4.142006,0
4.142207,0
4.142408,0
4.142605,0
4.142808,0
4.143010,0
4.143209,336
4.143409,976
4.143605,1648
4.143808,2320
4.144011,3376
4.144209,4225
4.144407,5025
4.144610,5393
4.144807,5585
4.145009,5505
4.145208,5505
4.145406,5537
4.145613,5537
4.145810,5857
4.146010,5761
4.146204,5953
4.146410,6049
4.146611,6097
4.146806,5889
4.147008,5953
4.147210,5809
4.147408,5777
4.147606,5825
4.147807,5873
4.148006,5905
4.148210,5809
4.148411,5809
4.148607,5777
4.148813,5729
4.149011,5985
4.149204,6529
4.149409,6481
4.149611,6657
4.149812,6801
4.150007,6561
4.150208,6449
4.150407,6385
4.150609,6337
4.150808,6289
4.151009,6097
4.151208,5665
4.151406,5649
4.151610,5521
4.151812,5393
4.152009,5345
4.152206,5121
4.152406,4897
4.152607,4737
4.152811,4689
4.153007,4609
4.153210,4529
4.153405,4545
4.153609,4513
4.153809,4513
4.154007,4305
4.154206,3856
4.154411,3456
4.154611,2752
4.154805,1984
4.155008,1600
4.155210,1360
4.155409,1616
4.155612,1632
4.155810,1584
4.156010,1488
4.156209,1232
4.156408,1184
4.156610,1120
4.156807,1168
4.157015,1184
4.157208,1184
4.157409,144
4.157606,0
4.157807,0
4.158013,0
4.158212,0
4.158405,0
4.158609,0
4.158812,0
4.159006,0
4.159207,0
4.159413,0
4.159610,0
4.159809,64
4.160010,672
4.160208,1328
4.160409,2064
4.160610,3136
4.160810,4193
4.161010,5009
4.161212,5473
4.161408,5633
4.161608,5585
4.161806,5649
4.162005,5649
4.162206,5649
4.162406,5953
4.162608,5889
4.162809,6065
4.163006,6161
4.163209,6065
4.163407,6033
4.163609,5969
4.163806,5841
4.164007,5921
4.164211,5889
4.164409,5953
4.164610,5953
4.164807,5889
4.165011,5889
4.165210,5889
4.165411,5809
4.165610,6017
4.165807,6737
4.166008,6529
4.166210,6609
4.166413,6721
4.166607,6673
4.166807,6561
4.167007,6529
4.167211,6497
4.167406,6449
4.167610,6273
4.167809,5953
4.168009,5729
4.168208,5553
4.168410,5537
4.168606,5393
4.168809,5409
4.169008,5121
4.169206,4945
4.169414,4849
4.169607,4801
4.169807,4673
4.170006,4753
4.170208,4673
4.170412,4657
4.170608,4609
4.170807,4064
4.171009,3728
4.171211,3040
4.171405,2208
4.171608,1712
4.171810,1616
4.172006,1536
4.172211,1568
4.172410,1504
4.172607,1344
4.172810,1184
4.173006,944
4.173207,1200
4.173413,1200
4.173606,1296
4.173806,1328
4.174010,928
4.174206,0
4.174407,0
4.174608,0
4.174807,0
4.175008,0
4.175205,0
4.175410,0
4.175607,0
4.175808,0
4.176012,0
4.176206,0
4.176409,0
4.176611,336
4.176810,960
4.177008,1744
4.177208,2736
4.177409,3728
4.177612,4673
4.177893,5265
4.178024,5585
4.178212,5633
4.178410,5665
4.178609,5569
4.178809,5617
4.179010,5761
4.179209,5969
4.179409,5937
4.179610,6081
4.179811,6097
4.180008,6033
4.180208,6017
4.180409,5921
4.180608,5937
4.180811,5921
4.181010,5825
4.181209,6001
4.181410,5969
4.181609,5921
4.181809,5905
4.182012,5841
4.182212,5921
4.182411,6609
4.182612,6593
4.182808,6625
4.183007,6657
4.183208,6737
4.183410,6625
4.183614,6481
4.183805,6481
4.184009,6401
4.184209,6369
4.184414,6177
4.184609,5809
4.184809,5713
4.185010,5457
4.185208,5441
4.185411,5169
4.185608,5041
4.185805,5009
4.186007,4769
4.186207,4769
4.186414,4561
4.186606,4673
4.186809,4641
4.187009,4545
4.187210,4545
4.187412,4016
4.187607,3776
4.187808,3200
4.188010,2320
4.188209,1744
4.188414,1488
4.188610,1344
4.188811,1712
4.189006,1712
4.189209,1584
4.189408,1488
4.189608,1296
4.189810,1184
4.190008,1040
4.190210,976
4.190407,1040
4.190609,672
4.190810,0
4.191009,0
4.191205,0
4.191410,0
4.191612,0
4.191810,0
4.192010,0
4.192211,0
4.192410,0
4.192610,0
4.192810,0
4.193010,0
4.193205,176
4.193406,1264
4.193609,1984
4.193807,2864
4.194009,3856
4.194208,4737
4.194408,5361
4.194609,5537
4.194813,5601
4.195008,5585
4.195209,5505
4.195405,5505
4.195608,5649
4.195808,5905
4.196004,5921
4.196210,6065
4.196407,6033
4.196608,5953
4.196813,5873
4.197008,5809
4.197211,5713
4.197406,5745
4.197608,5809
4.197810,5793
4.198008,5873
4.198203,5761
4.198411,5809
4.198610,5841
4.198810,5937
4.199005,6033
4.199209,6721
4.199411,6689
4.199609,6625
4.199808,6721
4.200008,6497
4.200208,6401
4.200408,6353
4.200611,6353
4.200810,6401
4.201009,6289
4.201209,5633
4.201405,5617
4.201608,5537
4.201811,5537
4.202013,5425
4.202212,5057
4.202410,4801
4.202610,4593
4.202808,4561
4.203007,4545
4.203207,4401
4.203408,4385
4.203608,4417
4.203806,4337
4.204008,4000
4.204210,3712
4.204411,3344
4.204606,2720
4.204810,2128
4.205008,1936
4.205213,1744
4.205409,1664
4.205607,1664
4.205808,1552
4.206014,1424
4.206208,1264
4.206406,1104
4.206608,1104
4.206808,1104
4.207013,1184
4.207208,1056
4.207409,0
4.207611,0
4.207814,0
4.208007,0
4.208209,0
4.208407,0
4.208609,0
4.208810,0
4.209010,0
4.209210,0
4.209406,0
4.209607,0
4.209807,80
4.210009,864
4.210210,1568
4.210411,2448
4.210609,3136
4.210809,4145
4.211006,4881
4.211210,5265
4.211410,5409
4.211608,5473
4.211811,5537
4.212010,5505
4.212208,5601
4.212406,5809
4.212608,5841
4.212810,5953
4.213005,6113
4.213208,5969
4.213410,5825
4.213606,5857
4.213811,5825
4.214007,5809
4.214207,5921
4.214409,5953
4.214609,6017
4.214810,5937
4.215009,5937
4.215208,5889
4.215408,5905
4.215608,5985
4.215812,6625
4.216009,6577
4.216206,6593
4.216410,6705
4.216608,6609
4.216805,6561
4.217011,6497
4.217208,6449
4.217408,6449
4.217606,6337
4.217808,5905
4.218010,5841
4.218208,5697
4.218409,5569
4.218613,5473
4.218807,5281
4.219012,5025
4.219206,4897
4.219410,4625
4.219607,4497
4.219808,4689
4.220010,4577
4.220208,4609
4.220410,4449
4.220609,4305
4.220805,3776
4.221010,3488
4.221205,2784
4.221410,1984
4.221608,1696
4.221805,1440
4.222010,1280
4.222209,1200
4.222412,1088
4.222610,1296
4.222808,1216
4.223007,1136
4.223212,992
4.223409,992
4.223609,1056
4.223809,976
4.224010,560
4.224210,0
4.224408,0
4.224609,0
4.224810,0
4.225013,0
4.225208,0
4.225408,0
4.225609,0
4.225809,0
4.226010,0
4.226212,0
4.226407,0
4.226608,448
4.226809,1040
4.227011,1536
4.227208,2624
4.227409,3632
4.227610,4417
4.227809,5057
4.228008,5425
4.228211,5377
4.228412,5425
4.228611,5457
4.228810,5473
4.229007,5777
4.229210,5809
4.229409,5857
4.229608,6033
4.229807,6001
4.230012,5857
4.230207,5841
4.230409,5809
4.230607,5841
4.230807,5633
4.231008,5905
4.231212,5921
4.231408,5905
4.231608,5905
4.231810,5921
4.232010,5857
4.232207,6017
4.232408,6689
4.232606,6529
4.232807,6545
4.233009,6673
4.233209,6657
4.233410,6561
4.233606,6497
4.233812,6417
4.234010,6369
4.234208,6289
4.234409,6001
4.234612,5681
4.234892,5505
4.235011,5569
4.235209,5313
4.235413,5009
4.235608,4929
4.235806,4865
4.236010,4737
4.236211,4625
4.236408,4641
4.236609,4625
4.236808,4513
4.237009,4609
4.237210,4545
4.237411,4113
4.237610,3776
4.237809,3168
4.238011,2336
4.238210,1728
4.238408,1856
4.238610,1760
4.238807,1696
4.239008,1696
4.239210,1456
4.239406,1200
4.239608,1168
4.239811,1120
4.240008,1152
4.240210,1184
4.240408,1200
4.240609,992
4.240808,0
4.241008,0
4.241209,0
4.241408,0
4.241609,0
4.241806,0
4.242020,0
4.242211,0
4.242410,0
4.242609,0
4.242807,0
4.243008,0
4.243212,336
4.243412,992
4.243609,1696
4.243812,2576
4.244009,3664
4.244208,4545
4.244411,5281
4.244612,5521
4.244812,5633
4.245012,5633
4.245205,5585
4.245412,5665
4.245608,5761
4.245807,5985
4.246010,5873
4.246212,6193
4.246409,6177
4.246609,5985
4.246806,5937
4.247010,5857
4.247208,5825
4.247409,5857
4.247610,5889
4.247808,5937
4.248010,5889
4.248208,5857
4.248413,5857
4.248609,5841
4.248810,5905
4.249012,6289
4.249204,6481
4.249410,6561
4.249608,6609
4.249809,6625
4.250008,6609
4.250211,6497
4.250406,6449
4.250610,6401
4.250814,6225
4.251008,6209
4.251206,5761
4.251411,5745
4.251610,5585
4.251809,5505
4.252011,5313
4.252204,5137
4.252412,4865
4.252611,4705
4.252810,4657
4.253010,4513
4.253206,4561
4.253412,4481
4.253605,4497
4.253810,4417
4.254009,4097
4.254208,3856
4.254408,3344
4.254611,2592
4.254808,2064
4.255006,1824
4.255211,1696
4.255405,1696
4.255610,1600
4.255807,1472
4.256011,1312
4.256207,1136
4.256410,1056
4.256610,1072
4.256807,1104
4.257006,1216
4.257208,1056
4.257409,0
4.257609,0
4.257808,0
4.258008,0
4.258212,0
4.258406,0
4.258610,0
4.258807,0
4.259008,0
4.259208,0
4.259409,0
4.259608,0
4.259809,320
4.260012,1056
4.260209,1712
4.260410,2496
4.260609,3408
4.260812,4321
4.261012,5025
4.261210,5425
4.261409,5601
4.261608,5649
4.261810,5585
4.262012,5649
4.262210,5697
4.262412,5937
4.262608,5937
4.262808,6081
4.263009,6177
4.263212,6081
4.263410,5969
4.263609,5969
4.263808,5921
4.264009,5905
4.264208,5873
4.264407,5777
4.264608,5969
4.264807,5889
4.265007,5729
4.265206,5825
4.265410,5793
4.265613,6017
4.265810,6481
4.266007,6369
4.266207,6481
4.266405,6529
4.266607,6545
4.266807,6433
4.267005,6401
4.267208,6369
4.267404,6209
4.267611,6161
4.267808,5697
4.268008,5633
4.268209,5521
4.268411,5425
4.268606,5329
4.268811,5089
4.269009,4913
4.269209,4689
4.269407,4641
4.269610,4545
4.269810,4545
4.270009,4513
4.270207,4593
4.270406,4609
4.270608,4353
4.270807,3888
4.271007,3632
4.271206,3040
4.271409,2304
4.271610,2064
4.271807,1888
4.272005,1744
4.272212,1728
4.272409,1680
4.272611,1568
4.272806,1344
4.273007,1280
4.273208,1216
4.273407,1168
4.273604,1312
4.273810,1152
4.274009,384
4.274213,0
4.274411,0
4.274611,0
4.274810,0
4.275008,0
4.275211,0
4.275410,0
4.275606,0
4.275807,0
4.276010,0
4.276207,0
4.276408,0
4.276607,736
4.276810,1584
4.277012,2304
4.277207,3056
4.277407,4048
4.277612,4753
4.277808,5281
4.278008,5425
4.278206,5521
4.278407,5441
4.278608,5633
4.278807,5649
4.279010,5857
4.279206,5809
4.279405,5985
4.279610,6081
4.279809,5969
4.280011,5825
4.280210,5809
4.280410,5777
4.280613,5793
4.280808,5889
4.281012,5905
4.281207,5809
4.281412,5825
4.281608,5729
4.281810,5809
4.282011,5809
4.282209,5809
4.282410,6513
4.282606,6465
4.282811,6625
4.283007,6753
4.283208,6689
4.283412,6545
4.283608,6177
4.283808,6449
4.284013,6305
4.284210,6209
4.284409,5889
4.284611,5777
4.284810,5553
4.285006,5521
4.285206,5297
4.285408,5185
4.285608,4945
4.285809,4801
4.286010,4785
4.286210,4641
4.286409,4625
4.286609,4625
4.286812,4577
4.287010,4289
4.287210,4257
4.287409,3744
4.287611,3392
4.287811,2944
4.288009,2112
4.288209,1696
4.288407,1568
4.288609,1456
4.288810,1456
4.289008,1424
4.289207,1344
4.289405,1216
4.289614,992
4.289810,944
4.290009,976
4.290210,992
4.290409,1088
4.290610,784
4.290811,0
4.291010,0
4.291208,0
4.291408,0
4.291610,0
4.291809,0
4.292011,0
4.292206,0
4.292409,0
4.292610,0
4.292814,0
4.293007,0
4.293211,432
4.293408,1040
4.293610,1776
4.293810,2656
4.294008,3680
4.294210,4641
4.294408,5137
4.294608,5457
4.294809,5457
4.295010,5473
4.295211,5505
4.295412,5537
4.295612,5697
4.295813,5777
4.296011,5777
4.296210,5953
4.296410,5921
4.296609,5825
4.296807,5809
4.297007,5825
4.297208,5777
4.297406,5889
4.297608,5921
4.297810,5889
4.298009,5921
4.298209,5841
4.298411,5841
4.298607,5809
4.298808,5873
4.299008,6273
4.299208,6625
4.299411,6545
4.299611,6545
4.299809,6545
4.300010,6545
4.300210,6481
4.300412,6385
4.300609,6401
4.300806,6321
4.301005,6225
4.301210,5793
4.301408,5681
4.301610,5457
4.301811,5409
4.302008,5457
4.302208,5185
4.302412,4993
4.302613,4769
4.302811,4769
4.303008,4657
4.303211,4577
4.303406,4561
4.303612,4609
4.303810,4577
4.304011,4241
4.304207,3888
4.304409,3392
4.304610,2560
4.304810,1872
4.305007,1696
4.305207,1632
4.305407,1584
4.305610,1600
4.305808,1424
4.306015,1216
4.306215,992
4.306413,944
4.306609,1024
4.306805,928
4.307012,1088
4.307209,736
4.307406,0
4.307608,0
4.307810,0
4.308010,0
4.308209,0
4.308412,0
4.308611,0
4.308808,0
4.309008,0
4.309209,0
4.309404,0
4.309605,0
4.309809,0
4.310006,240
4.310211,864
4.310408,1552
4.310609,2576
4.310808,3600
4.311009,4513
4.311210,5121
4.311409,5265
4.311608,5345
4.311809,5521
4.312008,5569
4.312208,5585
4.312409,6017
4.312613,5825
4.312808,6001
4.313012,6161
4.313208,5937
4.313408,5889
4.313610,5857
4.313806,5825
4.314006,5841
4.314208,6017
4.314410,5985
4.314611,6001
4.314811,5953
4.315009,5921
4.315208,5809
4.315408,5825
4.315610,6033
4.315805,6593
4.316010,6481
4.316209,6657
4.316409,6737
4.316608,6609
4.316807,6625
4.317009,6561
4.317208,6497
4.317410,6545
4.317614,6209
4.317809,5777
4.318007,5665
4.318207,5505
4.318407,5505
4.318608,5345
4.318812,5249
4.319009,4897
4.319208,4737
4.319409,4641
4.319608,4545
4.319807,4545
4.320012,4577
4.320209,4481
4.320409,4529
4.320610,4305
4.320808,3664
4.321011,3184
4.321208,2240
4.321407,1328
4.321605,992
4.321808,656
4.322009,608
4.322209,464
4.322407,400
4.322607,128
4.322807,0
4.323009,0
4.323208,0
4.323409,0
4.323608,0
4.323810,0
4.324007,0
4.324210,0
4.324411,0
4.324611,0
4.324807,0
4.325010,0
4.325207,0
4.325410,0
4.325609,0
4.325811,0
4.326005,0
4.326210,0
4.326408,176
4.326610,1072
4.326805,1616
4.327008,2496
4.327207,3232
4.327407,4193
4.327610,4897
4.327808,5361
4.328011,5537
4.328209,5601
4.328410,5601
4.328608,5585
4.328811,5681
4.329009,5905
4.329211,5937
4.329407,6033
4.329609,6193
4.329812,6081
4.330008,5937
4.330212,6001
4.330411,5889
4.330609,5921
4.330811,5937
4.331012,5697
4.331209,5889
4.331405,5937
4.331608,5825
4.331808,5889
4.332011,5841
4.927512,2192
4.927723,3344
4.927859,3968
4.928319,5153
4.928434,5505
4.928529,5745
4.929015,5889
4.929097,6033
4.929199,6065
4.929290,6193
4.929399,6273
4.929483,6225
4.929584,6209
4.929673,6065
4.929771,6081
4.929863,6017
4.929938,6065
4.930065,6161
4.930141,6161
4.930251,6161
4.930412,5937
4.930606,5841
4.930809,5889
4.931013,5969
4.931205,5841
4.931410,5841
4.931607,5841
4.931814,5937
4.932010,5921
4.932210,6689
4.932406,6433
4.932608,6593
4.932811,6689
4.933011,6625
4.933213,6593
4.933407,6417
4.933612,6401
4.933813,6465
4.934010,6209
4.934210,5761
4.934409,5825
4.934606,5505
4.934810,5441
4.935009,5313
4.935206,5169
4.935411,4865
4.935609,4705
4.935808,4593
4.936006,4481
4.936208,4497
4.936412,4449
4.936613,4577
4.936811,4433
4.937009,4225
4.937207,3792
4.937411,3584
4.937611,2896
4.937805,2176
4.938007,1856
4.938210,1696
4.938407,1584
4.938610,1504
4.938804,1472
4.939010,1376
4.939211,1200
4.939409,1104
4.939608,1088
4.939810,1072
4.940010,1136
4.940214,1072
4.940408,672
4.940609,0
4.940804,0
4.941007,0
4.941208,0
4.941408,0
4.941608,0
4.941809,0
4.942008,0
4.942206,0
4.942408,0
4.942611,0
4.942806,0
4.943010,704
4.943209,1376
4.943410,2000
4.943608,2976
4.943809,3888
4.944008,4801
4.944208,5313
4.944407,5473
4.944608,5537
4.944808,5457
4.945006,5569
4.945208,5569
4.945410,5793
4.945666,5921
4.945825,6113
4.946010,6241
4.946212,6193
4.946407,6001
4.946608,5921
4.946809,5889
4.947013,5905
4.947207,5857
4.947409,5921
4.947611,6017
4.947811,5921
4.948010,5809
4.948210,5777
4.948408,5697
4.948607,5969
4.948806,6593
4.949011,6449
4.949209,6545
4.949409,6593
4.949608,6609
4.949808,6481
4.950010,6465
4.950210,6401
4.950411,6353
4.950606,6305
4.950807,6017
4.951010,5825
4.951210,5713
4.951410,5617
4.951607,5553
4.951814,5345
4.952012,5073
4.952208,4945
4.952410,4801
4.952609,4689
4.952808,4705
4.953011,4593
4.953204,4673
4.953408,4625
4.953609,4593
4.953810,4113
4.954009,3744
4.954207,3168
4.954409,2288
4.954608,1952
4.954808,1792
4.955006,1552
4.955209,1520
4.955410,1568
4.955608,1472
4.955809,1216
4.956009,1024
4.956208,928
4.956410,1056
4.956610,976
4.956812,1152
4.957012,848
4.957205,0
4.957410,0
4.957609,0
4.957808,0
4.958005,0
4.958208,0
4.958412,0
4.958613,0
4.958807,0
4.959008,0
4.959204,0
4.959414,0
4.959613,272
4.959806,800
4.960013,1696
4.960210,2768
4.960412,3728
4.960607,4481
4.960812,5265
4.961007,5377
4.961211,5617
4.961406,5441
4.961610,5585
4.961807,5585
4.962009,5713
4.962210,5873
4.962407,5841
4.962609,6145
4.962810,6049
4.963008,6049
4.963207,5809
4.963409,5825
4.963608,5761
4.963808,5777
4.964011,5953
4.964207,5953
4.964407,5969
4.964610,5761
4.964809,5713
4.965007,5697
4.965208,5921
4.965410,6209
4.965611,6657
4.965808,6625
4.966012,6721
4.966214,6801
4.966408,6593
4.966607,6577
4.966809,6481
4.967008,6465
4.967212,6353
4.967409,6177
4.967610,5825
4.967807,5713
4.968005,5505
4.968210,5377
4.968407,5377
4.968610,5169
4.968810,4897
4.969008,4817
4.969208,4753
4.969408,4625
4.969610,4545
4.969809,4545
4.970009,4577
4.970208,4577
4.970406,4369
4.970606,3872
4.970809,3504
4.971008,2688
4.971212,1984
4.971410,1936
4.971612,1728
4.971814,1712
4.972008,1680
4.972207,1600
4.972411,1424
4.972610,1248
4.972811,1120
4.973012,1184
4.973210,1232
4.973409,1280
4.973605,1024
4.973809,0
4.974009,0
4.974210,0
4.974408,0
4.974610,0
4.974810,0
4.975006,0
4.975209,0
4.975410,0
4.975609,0
4.975806,0
4.976006,0
4.976207,336
4.976407,944
4.976610,1632
4.976812,2496
4.977010,3440
4.977206,4401
4.977407,5265
4.977609,5505
4.977811,5569
4.978013,5649
4.978208,5681
4.978403,5745
4.978608,5697
4.978806,6017
4.979009,5953
4.979210,6097
4.979411,6177
4.979609,6113
4.979813,5985
4.980012,5985
4.980208,5905
4.980406,5969
4.980610,5985
4.980807,5985
4.981006,5969
4.981210,5921
4.981407,5905
4.981610,5841
4.981808,5857
4.982009,6033
4.982209,6625
4.982411,6577
4.982606,6641
4.982809,6721
4.983005,6705
4.983210,6577
4.983410,6529
4.983607,6465
4.983810,6433
4.984013,6305
4.984212,5809
4.984406,5841
4.984608,5633
4.984808,5457
4.985009,5345
4.985211,5121
4.985408,5057
4.985609,4849
4.985809,4657
4.986010,4673
4.986209,4673
4.986407,4625
4.986607,4625
4.986808,4497
4.987011,4369
4.987206,3888
4.987408,3600
4.987610,2848
4.987810,2192
4.988010,1840
4.988207,1776
4.988407,1712
4.988612,1696
4.988806,1664
4.989009,1472
4.989207,1296
4.989412,1152
4.989608,1152
4.989810,1168
4.990010,1248
4.990204,1216
4.990405,528
4.990609,0
4.990811,0
4.991006,0
4.991207,0
4.991410,0
4.991611,0
4.991810,0
4.992010,0
4.992208,0
4.992411,0
4.992610,0
4.992807,128
4.993009,896
4.993209,1664
4.993408,2480
4.993604,3344
4.993807,4289
4.994010,5057
4.994207,5425
4.994408,5585
4.994607,5585
4.994811,5553
4.995012,5601
4.995207,5681
4.995407,5857
4.995610,6017
4.995808,5985
4.996007,6209
4.996210,6145
4.996406,5953
4.996610,5953
4.996810,5905
4.997014,5889
4.997212,5985
4.997412,6017
4.997609,5969
4.997805,5969
4.998008,5889
4.998205,5905
4.998409,5841
4.998610,5969
4.998809,6673
4.999006,6545
4.999208,6625
4.999407,6641
4.999609,6673
4.999811,6577
5.000009,6433
5.000206,6449
5.000412,6417
5.000610,6305
5.000806,5985
5.001011,5793
5.001208,5601
5.001410,5553
5.001608,5377
5.001808,5217
5.002010,5009
5.002207,4849
5.002403,4753
5.002609,4561
5.002808,4561
5.003009,4513
5.003209,4561
5.003404,4577
5.003607,4465
5.003808,4000
5.004011,3664
5.004210,3136
5.004413,2352
5.004610,1952
5.004811,1760
5.005011,1664
5.005209,1680
5.005409,1600
5.005607,1552
5.005813,1328
5.006009,1200
5.006207,1152
5.006409,1168
5.006610,1184
5.006807,1248
5.007008,944
5.007206,0
5.007406,0
5.007615,0
5.007810,0
5.008007,0
5.008212,0
5.008407,0
5.008608,0
5.008810,0
5.009010,0
5.009214,0
5.009414,64
5.009723,672
5.009863,1536
5.010017,1984
5.010211,2896
5.010411,3792
5.010613,4673
5.010810,5265
5.011011,5441
5.011209,5473
5.011411,5601
5.011608,5569
5.011808,5521
5.012007,5601
5.012209,5809
5.012410,5969
5.012606,5985
5.012810,5953
5.013010,5841
5.013210,5777
5.013410,5857
5.013608,5777
5.013811,5825
5.014008,5905
5.014212,5985
5.014410,5921
5.014611,5793
5.014809,5649
5.015008,5697
5.015211,5889
5.015405,6305
5.015612,6417
5.015808,6465
5.016009,6577
5.016212,6689
5.016409,6449
5.016611,6481
5.016810,6321
5.017012,6433
5.017207,6225
5.017411,5985
5.017608,5665
5.017809,5473
5.018008,5393
5.018204,5217
5.018411,5249
5.018612,4865
5.018805,4801
5.019012,4657
5.019212,4529
5.019412,4497
5.019607,4449
5.019808,4417
5.020012,4433
5.020210,4481
5.020409,4113
5.020609,3600
5.020814,3216
5.021012,2480
5.021208,1952
5.021405,1744
5.021604,1600
5.021810,1520
5.022010,1568
5.022213,1536
5.022408,1264
5.022607,1152
5.022810,1008
5.023011,1120
5.023209,1152
5.023410,1248
5.023610,1072
5.023806,0
5.024007,0
5.024208,0
5.024411,0
5.024613,0
5.024809,0
5.025009,0
5.025209,0
5.025406,0
5.025612,0
5.025810,0
5.026004,0
5.026207,384
5.026409,1024
5.026606,1632
5.026808,2608
5.027006,3664
5.027208,4577
5.027407,5233
5.027608,5537
5.027810,5457
5.028011,5633
5.028203,5345
5.028409,5633
5.028612,5713
5.028809,5889
5.029085,5777
5.029211,6209
5.029408,6145
5.029609,6065
5.029807,5937
5.030011,5937
5.030210,5889
5.030409,5905
5.030610,5953
5.030807,5969
5.031006,6017
5.031208,5905
5.031410,5905
5.031608,5857
5.031811,5889
5.032009,6049
5.032207,6593
5.032408,6561
5.032609,6657
5.032805,6657
5.033011,6625
5.033206,6577
5.033404,6529
5.033614,6449
5.033809,6417
5.034011,6273
5.034210,5857
5.034411,5713
5.034612,5569
5.034809,5473
5.035011,5409
5.035210,5185
5.035407,5041
5.035608,4865
5.035808,4753
5.036007,4817
5.036206,4689
5.036411,4593
5.036612,4577
5.036808,4561
5.037010,4433
5.037204,3984
5.037411,3552
5.037611,2880
5.037810,2112
5.038009,1856
5.038208,1632
5.038413,1696
5.038609,1584
5.038808,1488
5.039008,1312
5.039205,1200
5.039405,1040
5.039607,1104
5.039808,1104
5.040009,1184
5.040207,1104
5.040409,0
5.040607,0
5.040810,0
5.041013,0
5.041212,0
5.041408,0
5.041608,0
5.041808,0
5.042010,0
5.042212,0
5.042408,0
5.042608,0
5.042806,160
5.043012,800
5.043208,1488
5.043407,2176
5.043604,3248
5.043808,4273
5.044008,5089
5.044213,5457
5.044411,5601
5.044609,5665
5.044805,5665
5.045009,5633
5.045209,5777
5.045407,5937
5.045610,5857
5.045812,6049
5.046008,6113
5.046208,6081
5.046412,5969
5.046607,5969
5.046810,5937
5.047010,5889
5.047211,5937
5.047411,5969
5.047608,5985
5.047810,5937
5.048007,5889
5.048212,5857
5.048408,5841
5.048607,6017
5.048811,6609
5.049008,6513
5.049210,6609
5.049407,6737
5.049611,6689
5.049811,6513
5.050009,6449
5.050210,6401
5.050407,6385
5.050611,6209
5.050810,5921
5.051012,5761
5.051206,5585
5.051411,5441
5.051613,5313
5.051808,5201
5.052007,4993
5.052210,4817
5.052408,4753
5.052607,4657
5.052808,4497
5.053010,4513
5.053209,4609
5.053409,4545
5.053607,4417
5.053810,4048
5.054010,3808
5.054207,3168
5.054404,2368
5.054615,1920
5.054806,1856
5.055007,1744
5.055210,1696
5.055408,1728
5.055608,1568
5.055810,1408
5.056010,1216
5.056208,1168
5.056409,1216
5.056606,1376
5.056810,1344
5.057009,960
5.057212,0
5.057410,0
5.057607,0
5.057803,0
5.058006,0
5.058210,0
5.058410,0
5.058608,0
5.058808,0
5.059013,0
5.059208,0
5.059410,48
5.059608,608
5.059807,1472
5.060009,2208
5.060208,3024
5.060408,4048
5.060610,4913
5.060806,5377
5.061008,5569
5.061207,5601
5.061406,5633
5.061612,5649
5.061809,5601
5.062010,5793
5.062205,5937
5.062410,5873
5.062610,6097
5.062810,6097
5.063006,5969
5.063209,5889
5.063412,5873
5.063608,5889
5.063808,5905
5.064012,5921
5.064209,5953
5.064410,5953
5.064610,5873
5.064806,5905
5.065009,5841
5.065209,5937
5.065408,6593
5.065606,6545
5.065809,6529
5.066008,6625
5.066211,6593
5.066408,6481
5.066610,6449
5.066811,6337
5.067008,6289
5.067210,6225
5.067406,6065
5.067605,5793
5.067807,5633
5.068008,5521
5.068207,5425
5.068410,5297
5.068610,5057
5.068809,4865
5.069011,4657
5.069210,4657
5.069409,4561
5.069611,4545
5.069809,4561
5.070012,4513
5.070213,4481
5.070409,4064
5.070608,3728
5.070810,3312
5.071009,2624
5.071212,2048
5.071412,1872
5.071610,1760
5.071810,1696
5.072010,1760
5.072211,1584
5.072410,1456
5.072609,1312
5.072813,1168
5.073009,1184
5.073207,1248
5.073411,1296
5.073607,1088
5.073811,0
5.074013,0
5.074210,0
5.074413,0
5.074608,0
5.074809,0
5.075008,0
5.075214,0
5.075411,0
5.075609,0
5.075810,0
5.076011,0
5.076206,432
5.076409,1184
5.076610,1824
5.076808,2656
5.077012,3616
5.077206,4641
5.077404,5329
5.077610,5505
5.077810,5473
5.078010,5569
5.078212,5601
5.078410,5537
5.078611,5713
5.078809,5857
5.079010,5857
5.079207,6065
5.079408,6113
5.079607,6049
5.079808,5905
5.080009,5905
5.080212,5841
5.080411,5889
5.080607,5953
5.080806,5937
5.081005,5953
5.081209,5905
5.081410,5873
5.081612,5777
5.081808,5857
5.082010,6097
5.082206,6609
5.082409,6641
5.082609,6625
5.082811,6689
5.083009,6625
5.083208,6497
5.083410,6481
5.083608,6401
5.083812,6401
5.096076,6145
5.096183,6097
5.096269,6145
5.096344,6193
5.096459,6113
5.096535,6145
5.096649,6033
5.096731,6065
5.096856,5873
5.096934,5969
5.097041,5953
5.097121,5985
5.097234,5905
5.097312,5969
5.097421,5985
5.097610,5841
5.097804,5921
5.098013,5857
5.098212,5793
5.098407,5873
5.098611,5953
5.098809,6545
5.099011,6497
5.099212,6449
5.099408,6609
5.099610,6561
5.099810,6481
5.100010,6417
5.100210,6321
5.100410,6289
5.100606,6209
5.100808,5697
5.101005,5649
5.101210,5345
5.101407,5313
5.101608,5313
5.101808,5057
5.102008,4897
5.102210,4785
5.102408,4673
5.102610,4529
5.102811,4497
5.103007,4529
5.103209,4449
5.103413,4497
5.103609,4289
5.103808,3840
5.104008,3632
5.104207,2960
5.104403,2176
5.104608,1744
5.104808,1696
5.105009,1600
5.105208,1632
5.105410,1600
5.105607,1408
5.105808,1216
5.106010,1040
5.106208,1040
5.106410,1104
5.106606,1184
5.106808,1104
5.107008,592
5.107210,0
5.107410,0
5.107609,0
5.107807,0
5.108009,0
5.108212,0
5.108409,0
5.108610,0
5.108806,0
5.109007,0
5.109204,0
5.109411,0
5.109608,672
5.109804,1280
5.110007,2144
5.110208,3008
5.110409,4048
5.110604,4929
5.110809,5377
5.111008,5537
5.111208,5585
5.111406,5665
5.111610,5585
5.111805,5649
5.112005,5889
5.112210,5873
5.112413,5969
5.112610,6145
5.112808,6049
5.113008,6033
5.113208,5985
5.113411,5905
5.113612,5953
5.113810,5937
5.114008,5953
5.114211,5937
5.114408,5921
5.114612,5889
5.114812,5905
5.115008,5857
5.115211,5985
5.115411,6625
5.115610,6545
5.115808,6545
5.116012,6673
5.116211,6705
5.116405,6561
5.116606,6465
5.116812,6433
5.117005,6417
5.117211,6337
5.117414,5969
5.117610,5729
5.117807,5585
5.118011,5441
5.118208,5329
5.118408,5217
5.118608,4993
5.118810,4817
5.119011,4737
5.119209,4641
5.119406,4641
5.119609,4529
5.119810,4561
5.120011,4529
5.120210,4401
5.120410,4016
5.120608,3728
5.120807,3200
5.121006,2400
5.121210,1936
5.121414,1680
5.121609,1616
5.121809,1712
5.122007,1664
5.122204,1568
5.122411,1312
5.122605,1168
5.122809,1120
5.123012,1072
5.123210,1184
5.123407,1232
5.123610,912
5.123808,0
5.124009,0
5.124209,0
5.124408,0
5.124608,0
5.124808,0
5.125007,0
5.125210,0
5.125410,0
5.125609,0
5.125808,0
5.126007,0
5.126211,384
5.126406,1104
5.126606,1920
5.126811,2784
5.127008,3712
5.127207,4545
5.127407,5201
5.127611,5393
5.127814,5425
5.128010,5441
5.128205,5441
5.128409,5441
5.128609,5553
5.128807,5793
5.129010,5777
5.129211,5921
5.129412,6145
5.129606,5969
5.129808,5857
5.130010,5841
5.130211,5873
5.130409,5921
5.130608,5905
5.130810,5969
5.131010,5905
5.131213,5841
5.131409,5729
5.131611,5681
5.131807,5777
5.132009,6113
5.132208,6545
5.132406,6529
5.132608,6577
5.132805,6577
5.133008,6497
5.133208,6369
5.133406,6417
5.133611,6273
5.133812,6225
5.134008,6081
5.134210,5585
5.134409,5553
5.134607,5409
5.134810,5265
5.135010,5137
5.135209,5009
5.135409,4881
5.135613,4705
5.135808,4449
5.136008,4401
5.136208,4369
5.136410,4513
5.136604,4369
5.136808,4353
5.739395,0
5.739624,0
5.739720,96
5.740060,0
5.740141,0
5.740275,0
5.740606,0
5.740686,0
5.740789,0
5.740885,0
5.740990,0
5.741079,0
5.741186,0
5.741271,0
5.741371,0
5.741463,0
5.741536,0
5.741660,0
5.741737,0
5.741850,0
5.742018,0
5.742210,0
5.742407,0
5.742610,544
5.742810,1168
5.743011,1824
5.743209,2576
5.743411,3584
5.743610,4417
5.743812,5057
5.744006,5425
5.744210,5537
5.744410,5665
5.744609,5585
5.744810,5697
5.745009,5825
5.745209,5937
5.745410,5969
5.745607,6193
5.745809,6321
5.746007,6097
5.746206,5969
5.746408,5857
5.746609,5809
5.746811,5809
5.747009,5857
5.747211,5857
5.747408,5841
5.747608,5793
5.747807,5793
5.748005,5825
5.748207,5937
5.748410,6033
5.748608,6657
5.748810,6673
5.749011,6673
5.749212,6801
5.749411,6593
5.749612,6433
5.749811,6529
5.750010,6369
5.750208,6433
5.750408,6337
5.750606,5713
5.750812,5681
5.751011,5601
5.751210,5473
5.751410,5457
5.751607,5169
5.751806,4865
5.752009,4737
5.752211,4561
5.752408,4497
5.752608,4481
5.752811,4417
5.753009,4561
5.753213,4545
5.753408,4273
5.753610,3728
5.753808,3488
5.754010,2816
5.754210,2080
5.754410,1952
5.754609,1888
5.754810,1792
5.755008,1856
5.755207,1616
5.755409,1552
5.755608,1408
5.755809,1232
5.756009,1152
5.756211,1232
5.756413,1280
5.756609,1120
5.756806,208
5.757008,0
5.757207,0
5.757409,0
5.757608,0
5.757808,0
5.758012,0
5.758207,0
5.758406,0
5.758611,0
5.758815,0
5.759009,0
5.759210,0
5.759409,672
5.759606,1504
5.759809,2176
5.760011,3296
5.760212,4273
5.760410,5009
5.760610,5473
5.760809,5521
5.761011,5681
5.761210,5761
5.761409,5713
5.761607,5809
5.761809,5985
5.762011,5921
5.762208,6097
5.762408,6193
5.762607,6193
5.762807,6017
5.763007,5985
5.763204,5953
5.763413,5937
5.763612,5985
5.763808,6017
5.764010,5985
5.764207,5985
5.764408,5953
5.764610,5921
5.764811,5873
5.765012,5969
5.765210,6673
5.765409,6481
5.765606,6609
5.765809,6705
5.766008,6721
5.766211,6561
5.766412,6497
5.766607,6449
5.766804,6369
5.767009,6369
5.767207,5889
5.767410,5713
5.767609,5633
5.767806,5377
5.768011,5425
5.768207,5281
5.768413,5121
5.768610,4929
5.768806,4785
5.769011,4641
5.769210,4625
5.769409,4577
5.769614,4625
5.769811,4561
5.770007,4577
5.770211,4080
5.770409,3664
5.770609,3152
5.770809,2352
5.771010,1840
5.771209,1744
5.771408,1552
5.771609,1568
5.771810,1584
5.772007,1472
5.772208,1184
5.772405,1040
5.772605,1104
5.772810,1104
5.773007,1216
5.773210,1152
5.773410,896
5.773613,0
5.773804,0
5.774007,0
5.774206,0
5.774408,0
5.774613,0
5.774809,0
5.775008,0
5.775210,0
5.775405,0
5.775609,0
5.775809,0
5.776011,448
5.776211,1184
5.776412,2000
5.776611,2864
5.776808,3840
5.777007,4705
5.777211,5265
5.777406,5537
5.777610,5521
5.777809,5569
5.778008,5665
5.778210,5681
5.778463,5809
5.778612,5953
5.778810,5953
5.779010,6177
5.779209,6209
5.779410,5985
5.779610,5937
5.779805,5937
5.780010,5889
5.780210,5905
5.780411,6017
5.780609,6033
5.780804,5937
5.781007,5953
5.781210,5889
5.781413,5841
5.781606,5937
5.781812,6593
5.782011,6561
5.782210,6529
5.782408,6625
5.782610,6625
5.782810,6497
5.783008,6465
5.783208,6353
5.783405,6337
5.783610,6241
5.783809,6049
5.784011,5649
5.784210,5633
5.784408,5457
5.784605,5217
5.784812,5137
5.785007,5025
5.785208,4785
5.785407,4753
5.785607,4673
5.785810,4513
5.786008,4577
5.786206,4513
5.786406,4513
5.786610,4529
5.786812,4032
5.787007,3856
5.787209,3280
5.787408,2592
5.787606,1952
5.787810,1712
5.788011,1680
5.788208,1648
5.788408,1632
5.788609,1504
5.788808,1312
5.789004,1184
5.789209,1168
5.789410,1152
5.789608,1200
5.789806,1232
5.790009,912
5.790211,0
5.790411,0
5.790612,0
5.790808,0
5.791007,0
5.791211,0
5.791407,0
5.791606,0
5.791810,0
5.792006,0
5.792208,0
5.792410,0
5.792613,272
5.792807,976
5.793012,1760
5.793209,2576
5.793407,3632
5.793610,4497
5.793813,5185
5.794009,5409
5.794209,5425
5.794411,5409
5.794606,5553
5.794812,5553
5.795007,5585
5.795206,5889
5.795407,5809
5.795610,5937
5.795807,5985
5.796010,5857
5.796208,5825
5.796407,5857
5.796609,5857
5.796809,5825
5.797009,5889
5.797207,5937
5.797408,5873
5.797607,5857
5.797810,5841
5.798008,5793
5.798211,5905
5.798408,6033
5.798609,6529
5.798810,6609
5.799009,6593
5.799209,6641
5.799406,6721
5.799610,6529
5.799812,6529
5.800010,6497
5.800209,6385
5.800407,6241
5.800610,5809
5.800809,5729
5.801006,5569
5.801204,5473
5.801409,5393
5.801607,5137
5.801808,4929
5.802006,4737
5.802209,4737
5.802412,4625
5.802608,4673
5.802806,4545
5.803010,4513
5.803206,4609
5.803408,4273
5.803608,3984
5.803809,3616
5.804007,2848
5.804207,2208
5.804407,1856
5.804612,1728
5.804812,1696
5.805010,1760
5.805209,1552
5.805408,1504
5.805608,1312
5.805810,1200
5.806010,1184
5.806209,1184
5.806407,1344
5.806611,1200
5.806808,0
5.807008,0
5.807209,0
5.807410,0
5.807610,0
5.807809,0
5.808013,0
5.808210,0
5.808410,0
5.808610,0
5.808811,0
5.809007,0
5.809206,336
5.809410,1040
5.809608,1808
5.809805,2592
5.810007,3328
5.810208,4273
5.810411,5121
5.810610,5473
5.810808,5601
5.811009,5505
5.811207,5665
5.811405,5681
5.811609,5617
5.811807,5889
5.812006,5729
5.812210,5889
5.812407,6017
5.812610,5921
5.812806,5857
5.813006,5777
5.813209,5777
5.813409,5729
5.813609,5841
5.813808,5793
5.814008,5873
5.814207,5761
5.814411,5729
5.814610,5681
5.814807,5665
5.815006,5905
5.815209,6481
5.815411,6337
5.815607,6481
5.815807,6497
5.816009,6561
5.816207,6401
5.816412,6337
5.816608,6305
5.816808,6273
5.817006,6209
5.817209,5761
5.817409,5585
5.817608,5441
5.817810,5361
5.818011,5233
5.818210,5073
5.818407,4913
5.818609,4545
5.818808,4561
5.819011,4561
5.819209,4545
5.819406,4497
5.819608,4417
5.819808,4497
5.820007,4433
5.820208,3776
5.820410,3472
5.820605,3008
5.820811,2208
5.821010,1872
5.821210,1712
5.821408,1568
5.821607,1600
5.821808,1536
5.822010,1424
5.822210,1216
5.822411,1056
5.822609,1088
5.822805,1248
5.823008,1248
5.823212,1216
5.823411,896
5.823608,0
5.823811,0
5.824007,0
5.824211,0
5.824410,0
5.824612,0
5.824809,0
5.825010,0
5.825210,0
5.825411,0
5.825611,0
5.825808,0
5.826009,512
5.826212,1120
5.826410,2112
5.826608,3088
5.826809,4048
5.827011,4833
5.827206,5425
5.827410,5505
5.827609,5649
5.827810,5601
5.828013,5585
5.828208,5649
5.828408,5825
5.828611,5825
5.828806,5953
5.829011,6145
5.829207,6049
5.829409,5889
5.829609,5905
5.829812,5809
5.830009,5777
5.830209,5825
5.830410,5825
5.830613,5841
5.830809,5793
5.831008,5777
5.831210,5793
5.831407,5761
5.831612,5825
5.831809,6545
5.832007,6433
5.832207,6545
5.832406,6545
5.832607,6577
5.832808,6481
5.833008,6353
5.833208,6433
5.833407,6289
5.833609,6161
5.833808,6097
5.834012,5681
5.834209,5617
5.834409,5473
5.834610,5441
5.834806,5313
5.835007,5201
5.835210,4913
5.835405,4817
5.835612,4689
5.835808,4561
5.836009,4593
5.836205,4625
5.836410,4625
5.836607,4593
5.836807,4177
5.837006,3792
5.837212,3376
5.837411,2528
5.837608,1872
5.837808,1744
5.838008,1584
5.838209,1600
5.838410,1616
5.838608,1536
5.838806,1328
5.839010,1072
5.839212,1008
5.839408,1152
5.839611,1088
5.839810,1168
5.840006,960
5.840209,0
5.840408,0
5.840689,0
5.840808,0
5.841007,0
5.841209,0
5.841406,0
5.841607,0
5.841812,0
5.842006,0
5.842207,0
5.842414,0
5.842614,480
5.842812,1120
5.843006,1856
5.843211,2576
5.843403,3776
5.843611,4673
5.843807,5201
5.844012,5473
5.844208,5585
5.844406,5569
5.844609,5537
5.844812,5569
5.845007,5761
5.845207,5921
5.845407,5857
5.845608,6065
5.845805,6177
5.846012,5985
5.846209,5905
5.846409,5857
5.846608,5697
5.846805,5729
5.847006,5777
5.847209,5761
5.847409,5761
5.847608,5713
5.847808,5681
5.848010,5745
5.848207,5681
5.848406,5889
5.848608,6385
5.848808,6369
5.849003,6449
5.849214,6593
5.849413,6401
5.849606,6337
5.849810,6353
5.850009,6289
5.850209,6177
5.850409,6065
5.850606,5537
5.850812,5537
5.851008,5393
5.851207,5201
5.851409,5185
5.851609,4993
5.851808,4769
5.852010,4657
5.852210,4545
5.852410,4577
5.852611,4609
5.852809,4545
5.853008,4529
5.853210,4545
5.853406,4321
5.853610,3840
5.853805,3600
5.854007,2816
5.854208,2080
5.854407,1760
5.854605,1680
5.854810,1664
5.855012,1696
5.855208,1568
5.855407,1424
5.855604,1248
5.855807,1088
5.856009,1104
5.856211,1168
5.856409,1248
5.856606,1040
5.856811,0
5.857010,0
5.857210,0
5.857409,0
5.857609,0
5.857813,0
5.858008,0
5.858211,0
5.858406,0
5.858610,0
5.858807,0
5.859007,0
5.859209,128
5.859410,864
5.859604,1648
5.859809,2512
5.860007,3472
5.860207,4433
5.860412,5169
5.860609,5473
5.860809,5569
5.861009,5633
5.861210,5697
5.861409,5601
5.861608,5633
5.861808,5873
5.862007,5937
5.862206,6049
5.862412,6177
5.862608,6065
5.862805,5953
5.863012,5953
5.863208,5841
5.863407,5841
5.863610,5889
5.863806,5937
5.864007,5985
5.864210,5889
5.864410,5889
5.864608,5857
5.864810,5857
5.865009,5953
5.865210,6673
5.865408,6481
5.865606,6577
5.865808,6689
5.866012,6609
5.866212,6481
5.866411,6401
5.866606,6353
5.866814,6401
5.867010,6241
5.867210,5905
5.867406,5777
5.867610,5569
5.867809,5457
5.868010,5329
5.868208,5185
5.868407,4945
5.868606,4785
5.868807,4673
5.869011,4561
5.869209,4529
5.869410,4497
5.869608,4577
5.869809,4529
5.870010,4273
5.870212,3936
5.870404,3776
5.870607,3024
5.870806,2208
5.871008,1936
5.871210,1744
5.871408,1632
5.871610,1696
5.871810,1664
5.872010,1504
5.872208,1312
5.872409,1184
5.872611,1152
5.872808,1232
5.873009,1248
5.873210,1232
5.873404,928
5.873609,0
5.873806,0
5.874010,0
5.874208,0
5.874407,0
5.874610,0
5.874811,0
5.875003,0
5.875208,0
5.875411,0
5.875611,0
5.875809,176
5.876007,944
5.876210,1584
5.876411,2448
5.876610,3136
5.876806,4064
5.877009,4737
5.877208,5329
5.877410,5521
5.877611,5537
5.877808,5633
5.878014,5649
5.878205,5697
5.878410,5761
5.878607,5889
5.878809,6049
5.879008,6113
5.879210,6081
5.879408,5921
5.879610,5889
5.879804,5873
5.880008,5857
5.880211,5841
5.880414,5921
5.880608,5873
5.880814,5825
5.881007,5841
5.881209,5761
5.881408,5777
5.881612,5889
5.881809,6609
5.882011,6529
5.882208,6481
5.882408,6657
5.882609,6657
5.882809,6529
5.883009,6529
5.883211,6385
5.883408,6401
5.883612,6369
5.883809,6049
5.884012,5729
5.884211,5601
5.884410,5473
5.884608,5265
5.884809,5297
5.885009,4993
5.885213,4785
5.885409,4625
5.885608,4593
5.885811,4497
5.886013,4481
5.886207,4513
5.886408,4545
5.886609,4497
5.886809,3952
5.887008,3632
5.887208,3264
5.887406,2384
5.887614,1888
5.887808,1744
5.888013,1696
5.888210,1712
5.888408,1664
5.888610,1472
5.888810,1408
5.889007,1152
5.889210,1040
5.889408,1104
5.889610,1184
5.889809,1184
5.890012,912
5.890211,0
5.890410,0
5.890613,0
5.890809,0
5.891009,0
5.891210,0
5.891408,0
5.891614,0
5.891810,0
5.892011,0
5.892210,0
5.892405,0
5.892614,448
5.892810,1088
5.893007,1952
5.893210,2816
5.893408,3760
5.893607,4673
5.893807,5185
5.894007,5409
5.894208,5505
5.894409,5505
5.894607,5553
5.894808,5585
5.895010,5633
5.895208,5825
5.895409,5809
5.895611,6033
5.895810,6017
5.896008,5873
5.896211,5793
5.896411,5761
5.896608,5713
5.896812,5777
5.897008,5809
5.897206,5889
5.897412,5809
5.897606,5777
5.897806,5761
5.898009,5761
5.898207,5825
5.898407,6065
5.898610,6577
5.898812,6465
5.899009,6577
5.899207,6593
5.899407,6433
5.899613,6369
5.899808,6353
5.900012,6225
5.900213,6209
5.900407,6033
5.900610,5585
5.900810,5537
5.901009,5313
5.901205,5233
5.901408,5153
5.901606,4945
5.901810,4881
5.902010,4673
5.902213,4625
5.902407,4529
5.902606,4449
5.902814,4417
5.903008,4401
5.903211,4401
5.903410,4273
5.903610,3792
5.903810,3360
5.904008,2640
5.904206,2048
5.904410,1712
5.904610,1616
5.904812,1536
5.905006,1616
5.905208,1504
5.905411,1280
5.905608,1168
5.905809,1056
5.906008,1024
5.906207,1088
5.906444,1232
5.906617,1088
5.906809,0
5.907006,0
5.907211,0
5.907408,0
5.907606,0
5.907810,0
5.908008,0
5.908206,0
5.908409,0
5.908610,0
5.908810,0
5.909009,0
5.909207,208
5.909411,848
5.909608,1536
5.909808,2480
5.910006,3344
5.910210,4305
5.910407,5073
5.910611,5313
5.910808,5377
5.911006,5521
5.911209,5441
5.911408,5521
5.911609,5473
5.911810,5793
5.912010,5697
5.912209,5873
5.912405,5953
5.912609,5873
5.912809,5825
5.913008,5777
5.913211,5697
5.913407,5745
5.913608,5761
5.913806,5841
5.914012,5793
5.914207,5793
5.914405,5729
5.914606,5697
5.914808,5713
5.915007,5873
5.915210,6433
5.915414,6337
5.915608,6433
5.915809,6529
5.916010,6465
5.916204,6353
5.916409,6321
5.916609,6305
5.916809,6241
5.917008,6161
5.917210,5601
5.917409,5665
5.917611,5457
5.917813,5345
5.918007,5249
5.918205,5169
5.918412,4929
5.918608,4849
5.918810,4769
5.919012,4625
5.919210,4497
5.919409,4577
5.919607,4641
5.919809,4497
5.920007,4369
5.920210,3968
5.920410,3680
5.920609,2960
5.920809,2256
5.921010,1824
5.921210,1760
5.921408,1696
5.921607,1680
5.921808,1616
5.922009,1536
5.922210,1280
5.922409,1152
5.922610,1120
5.922811,1216
5.923011,1280
5.923205,1248
5.923408,528
5.923607,0
5.923810,0
5.924005,0
5.924213,0
5.924411,0
5.924605,0
5.924810,0
5.925008,0
5.925210,0
5.925412,0
5.925609,0
5.925809,48
5.926010,816
5.926208,1536
5.926412,2368
5.926609,3184
5.926814,4193
5.927011,4961
5.927208,5393
5.927408,5521
5.927607,5601
5.927808,5569
5.928008,5633
5.928210,5585
5.928406,5857
5.928609,5905
5.928810,5937
5.929008,6081
5.929210,6049
5.929406,5969
5.929613,5825
5.929806,5841
5.930009,5841
5.930208,5825
5.930405,5889
5.930611,5921
5.930808,5889
5.931007,5825
5.931210,5825
5.931411,5761
5.931608,5953
5.931809,6561
5.932007,6529
5.932208,6577
5.932406,6657
5.932610,6673
5.932811,6529
5.933011,6385
5.933209,6401
5.933404,6225
5.933608,6225
5.933808,5969
5.934009,5713
5.934209,5521
5.934408,5473
5.934606,5393
5.934806,5185
5.935007,5025
5.935207,4785
5.935410,4689
5.935610,4545
5.935809,4513
5.936011,4481
5.936210,4481
5.936413,4561
5.936608,4417
5.936811,4000
5.937006,3744
5.937209,3216
5.937407,2448
5.937610,1952
5.937808,1760
6.608947,0
6.609188,336
6.609288,1184
6.609400,1808
6.609484,2512
6.609610,3136
6.609688,3808
6.609793,4417
6.609880,4913
6.609999,5425
6.610081,5713
6.610183,5873
6.610404,5649
6.610491,5793
6.610602,5697
6.610692,5825
6.610796,5729
6.610897,5857
6.611020,5905
6.611206,5809
6.611406,5809
6.611612,5985
6.611810,6017
6.612013,6145
6.612208,6225
6.612412,6145
6.612610,6001
6.612809,5969
6.613011,5937
6.613208,5953
6.613408,5985
6.613609,5969
6.613807,6049
6.614009,5937
6.614207,5905
6.614407,5921
6.614608,5905
6.614810,6097
6.615010,6641
6.615210,6561
6.615413,6657
6.615606,6657
6.615805,6737
6.616011,6529
6.616209,6481
6.616408,6449
6.616608,6369
6.616806,6305
6.617010,5857
6.617208,5713
6.617411,5553
6.617608,5473
6.617812,5409
6.618008,5169
6.618209,4913
6.618410,4769
6.618608,4657
6.618807,4561
6.619011,4513
6.619207,4529
6.619409,4513
6.619610,4529
6.619808,4369
6.620009,3872
6.620207,3600
6.620410,2912
6.620610,2176
6.620811,1984
6.621006,1776
6.621212,1648
6.621410,1680
6.621610,1632
6.621808,1536
6.622008,1360
6.622211,1200
6.622408,1184
6.622612,1216
6.622810,1280
6.623012,1248
6.623214,608
6.623408,0
6.623610,0
6.623809,0
6.624007,0
6.624209,0
6.624410,0
6.624605,0
6.624811,0
6.625007,0
6.625209,0
6.625411,0
6.625610,0
6.625812,640
6.626010,1408
6.626213,2256
6.626408,3120
6.626610,4193
6.626804,4993
6.627010,5505
6.627206,5521
6.627407,5569
6.627608,5681
6.627809,5649
6.628005,5777
6.628211,5841
6.628410,5857
6.628608,6017
6.628809,6161
6.629006,6017
6.629208,5905
6.629408,5809
6.629608,5777
6.629808,5761
6.630009,5857
6.630210,5857
6.630409,5857
6.630605,5809
6.630808,5745
6.631010,5729
6.631210,5697
6.631414,5841
6.631607,6625
6.631809,6577
6.632009,6609
6.632209,6673
6.632406,6529
6.632610,6545
6.632810,6545
6.633008,6241
6.633210,6305
6.633411,6193
6.633609,5937
6.633810,5697
6.634006,5377
6.634204,5329
6.634409,5281
6.634612,5297
6.634811,5089
6.635005,4785
6.635210,4769
6.635410,4641
6.635606,4577
6.635809,4433
6.636014,4497
6.636208,4481
6.636406,4449
6.636611,4064
6.636807,3712
6.637008,3168
6.637208,2384
6.637409,1824
6.637608,1680
6.637807,1568
6.638007,1504
6.638207,1568
6.638411,1456
6.638609,1312
6.638806,1056
6.639007,992
6.639208,1104
6.639408,1152
6.639609,1216
6.639810,864
6.640007,0
6.640208,0
6.640407,0
6.640609,0
6.640808,0
6.641011,0
6.641211,0
6.641408,0
6.641609,0
6.641812,0
6.642008,0
6.642209,0
6.642406,416
6.642610,1104
6.642807,1904
6.643010,2720
6.643210,3824
6.643412,4769
6.643605,5345
6.643808,5569
6.644006,5665
6.644208,5729
6.644410,5681
6.644611,5681
6.644806,5857
6.645010,6033
6.645209,5905
6.645408,6113
6.645609,6209
6.645806,6097
6.646008,5985
6.646207,5985
6.646410,5905
6.646605,5937
6.646808,5985
6.647010,6017
6.647208,5953
6.647407,5889
6.647610,5873
6.647807,5841
6.648007,5953
6.648208,6161
6.648407,6641
6.648610,6609
6.648808,6705
6.649008,6673
6.649209,6609
6.649407,6497
6.649612,6529
6.649810,6417
6.650010,6433
6.650214,6273
6.650410,5825
6.650608,5777
6.650808,5553
6.651008,5441
6.651207,5249
6.651412,5137
6.651609,5009
6.651810,4769
6.652014,4689
6.652208,4673
6.652407,4625
6.652608,4625
6.652810,4545
6.653005,4561
6.653212,4145
6.653410,3872
6.653609,3456
6.653809,2592
6.654008,2064
6.654207,1792
6.654409,1712
6.654605,1568
6.654806,1616
6.655007,1536
6.655209,1360
6.655409,1216
6.655612,1056
6.655806,1072
6.656008,1152
6.656208,1200
6.656411,976
6.656608,0
6.656811,0
6.657010,0
6.657210,0
6.657408,0
6.657612,0
6.657808,0
6.658006,0
6.658208,0
6.658409,0
6.658609,0
6.658811,0
6.659009,176
6.659208,864
6.659410,1680
6.659609,2544
6.659810,3472
6.660008,4369
6.660210,5185
6.660409,5441
6.660608,5441
6.660806,5425
6.661010,5505
6.661208,5473
6.661414,5537
6.661608,5793
6.661809,5809
6.662008,5921
6.662207,6065
6.662410,5905
6.662608,5825
6.662803,5793
6.663009,5713
6.663209,5761
6.663410,5937
6.663608,5985
6.663811,5921
6.664005,5793
6.664212,5857
6.664411,5809
6.664605,5841
6.664809,6049
6.665009,6705
6.665209,6609
6.665409,6689
6.665606,6753
6.665808,6721
6.666010,6417
6.666208,6561
6.666408,6369
6.666614,6305
6.666809,6241
6.667011,5809
6.667205,5793
6.667409,5553
6.667608,5409
6.667804,5409
6.668010,5121
6.668211,4913
6.668413,4801
6.668603,4673
6.668808,4577
6.669010,4545
6.669209,4529
6.669406,4513
6.669608,4513
6.669804,4257
6.670008,3856
6.670209,3504
6.670411,2752
6.670610,2048
6.670806,1792
6.671008,1600
6.671210,1552
6.671412,1520
6.671615,1440
6.671809,1296
6.672010,1120
6.672210,1056
6.672410,1040
6.672609,1056
6.672810,1120
6.673008,1088
6.673211,528
6.673411,0
6.673608,0
6.673810,0
6.674012,0
6.674212,0
6.674419,0
6.674609,0
6.674808,0
6.675009,0
6.675207,0
6.675407,0
6.675607,144
6.675810,1072
6.676008,1664
6.676208,2400
6.676408,3280
6.676607,4145
6.676810,4961
6.677006,5441
6.677210,5521
6.677409,5473
6.677610,5553
6.677807,5473
6.678012,5473
6.678209,5729
6.678413,5857
6.678607,5921
6.678806,6017
6.679010,6049
6.679208,5873
6.679410,5777
6.679607,5681
6.679810,5841
6.680008,5905
6.680209,5793
6.680407,5937
6.680607,5889
6.680807,5889
6.681010,5921
6.681211,5841
6.681409,5985
6.681609,6657
6.681809,6529
6.682006,6561
6.682208,6641
6.682405,6737
6.682609,6529
6.682809,6497
6.683009,6465
6.683213,6417
6.683411,6353
6.683608,5969
6.683806,5809
6.684008,5569
6.684208,5521
6.684406,5425
6.684606,5409
6.684808,5073
6.685008,4897
6.685213,4753
6.685407,4673
6.685609,4577
6.685808,4369
6.686012,4385
6.686211,4385
6.686411,4241
6.686610,3856
6.686809,3520
6.687006,3072
6.687210,2272
6.687410,1840
6.687610,1664
6.687808,1552
6.688010,1552
6.688204,1520
6.688410,1328
6.688611,1184
6.688810,1056
6.689008,1072
6.689209,1072
6.689407,1152
6.689607,1216
6.689809,864
6.690009,0
6.690208,0
6.690413,0
6.690613,0
6.690804,0
6.691012,0
6.691212,0
6.691408,0
6.691610,0
6.691809,0
6.692013,0
6.692210,0
6.692407,512
6.692607,1184
6.692808,2000
6.693010,2864
6.693210,3904
6.693412,4737
6.693610,5313
6.693810,5585
6.694010,5649
6.694209,5633
6.694410,5633
6.694609,5649
6.694812,5825
6.695008,5921
6.695209,5937
6.695412,6161
6.695609,6177
6.695803,6017
6.696013,5937
6.696212,5905
6.696411,5857
6.696609,5889
6.696811,5889
6.697008,5985
6.697207,5905
6.697406,5857
6.697603,5889
6.697810,5841
6.698009,5937
6.698210,6337
6.698410,6529
6.698610,6593
6.698808,6705
6.699009,6705
6.699209,6657
6.699412,6449
6.699610,6481
6.699808,6449
6.700009,6289
6.700209,6225
6.700411,5793
6.700609,5601
6.700810,5473
6.701011,5249
6.701207,5425
6.701408,5201
6.701613,4929
6.701810,4849
6.702009,4673
6.702208,4641
6.702408,4577
6.702609,4545
6.702807,4561
6.703009,4449
6.703210,4257
6.703409,3856
6.703608,3344
6.703812,2672
6.704007,2000
6.704207,1776
6.704410,1568
6.704608,1584
6.704809,1568
6.705009,1456
6.705211,1312
6.705414,1152
6.705614,1088
6.705810,1072
6.706009,1168
6.706211,1216
6.706410,1024
6.706610,0
6.706807,0
6.707010,0
6.707212,0
6.707409,0
6.707609,0
6.707812,0
6.708007,0
6.708210,0
6.708407,0
6.708606,0
6.708808,0
6.709009,288
6.709205,992
6.709411,1760
6.709610,2384
6.709806,3568
6.710085,4561
6.710208,5233
6.710411,5505
6.710610,5601
6.710807,5649
6.711008,5649
6.711211,5649
6.711407,5665
6.711611,5953
6.711807,5969
6.712010,6049
6.712209,6145
6.712410,5969
6.712612,5937
6.712809,5889
6.713012,5825
6.713210,5857
6.713408,5937
6.713613,5969
6.713809,5921
6.714013,5889
6.714206,5905
6.714411,5841
6.714611,5857
6.714809,6017
6.715009,6561
6.715209,6577
6.715411,6625
6.715606,6641
6.715810,6625
6.716011,6433
6.716209,6289
6.716409,6337
6.716612,6289
6.716807,6177
6.717009,5697
6.717209,5585
6.717412,5393
6.717608,5297
6.717808,5137
6.718010,5169
6.718208,4945
6.718410,4785
6.718609,4737
6.718804,4433
6.719010,4561
6.719205,4481
6.719408,4401
6.719607,4417
6.719808,4241
6.720008,3856
6.720209,3472
6.720406,2720
6.720610,1936
6.720806,1696
6.721009,1568
6.721209,1536
6.721410,1440
6.721605,1472
6.721808,1248
6.722012,1072
6.722209,944
6.722405,992
6.722609,1024
6.722808,1104
6.723009,944
6.723207,224
6.723410,0
6.723610,0
6.723809,0
6.724011,0
6.724213,0
6.724409,0
6.724612,0
6.724808,0
6.725012,0
6.725209,0
6.725412,0
6.725605,96
6.725809,784
6.726009,1488
6.726212,2272
6.726406,3376
6.726610,4321
6.726806,5073
6.727012,5425
6.727207,5649
6.727410,5601
6.727605,5633
6.727808,5617
6.728009,5585
6.728210,5921
6.728410,5921
6.728610,6033
6.728810,6273
6.729009,6113
6.729209,5937
6.729409,5921
6.729608,5905
6.729813,5857
6.730010,5937
6.730209,5953
6.730412,5953
6.730610,5969
6.730812,5857
6.731010,5857
6.731209,5841
6.731410,5985
6.731607,6625
6.731807,6529
6.732010,6577
6.732207,6673
6.732412,6689
6.732609,6545
6.732808,6465
6.733008,6465
6.733209,6481
6.733409,6321
6.733609,5985
6.733805,5793
6.734012,5585
6.734211,5617
6.734408,5313
6.734609,5185
6.734809,5025
6.735007,4785
6.735211,4673
6.735411,4609
6.735608,4529
6.735810,4529
6.736011,4481
6.736207,4513
6.736411,4353
6.736608,3888
6.736808,3728
6.737012,3024
6.737209,2224
6.737410,1824
6.737610,1664
6.737807,1664
6.738012,1552
6.738206,1488
6.738423,1232
6.738620,1232
6.738810,1104
6.739009,992
6.739210,1104
6.739408,1088
6.739609,1104
6.739809,784
6.740006,0
6.740208,0
6.740410,0
6.740610,0
6.740810,0
6.741005,0
6.741211,0
6.741408,0
6.741612,0
6.741811,0
6.742009,0
6.742208,0
6.742410,672
6.742605,1408
6.742811,2080
6.743010,2832
6.743206,3792
6.743409,4737
6.743608,5313
6.743812,5473
6.744006,5601
6.744212,5585
6.744411,5585
6.744609,5585
6.744809,5761
6.745005,5953
6.745210,5953
6.745408,6161
6.745609,6177
6.745810,5921
6.746008,5937
6.746207,5889
6.746409,5841
6.746607,5873
6.746808,5953
6.747008,5953
6.747208,5985
6.747408,5905
6.747608,5905
6.747808,5889
6.748008,5969
6.748206,6465
6.748409,6641
6.748612,6609
6.748812,6705
6.749010,6689
6.749207,6545
6.749406,6497
6.749610,6465
6.749808,6321
6.750009,6337
6.750209,6113
6.750409,5777
6.750608,5617
6.750803,5569
6.751011,5457
6.751211,5185
6.751410,5041
6.751610,4833
6.751812,4641
6.752008,4529
6.752207,4417
6.752409,4449
6.752610,4593
6.752810,4513
6.753010,4369
6.753209,4032
6.753408,3744
6.753610,3152
6.753807,2368
6.754012,1840
6.754208,1664
6.754411,1600
6.754611,1584
6.754810,1568
6.755010,1520
6.755207,1360
6.755408,1168
6.755609,1104
6.755812,1152
6.756006,1168
6.756210,1216
6.756409,1088
6.756608,0
6.756809,0
6.757008,0
6.757213,0
6.757409,0
6.757606,0
6.757806,0
6.758010,0
6.758210,0
6.758406,0
6.758610,0
6.758810,0
6.759013,448
6.759206,1040
6.759407,1792
6.759607,2608
6.759808,3680
6.760010,4513
6.760207,5137
6.760407,5377
6.760608,5537
6.760806,5457
6.761010,5441
6.761206,5425
6.761414,5601
6.761608,5777
6.761806,5777
6.762009,5953
6.762208,6017
6.762410,5873
6.762608,5777
6.762805,5729
6.763006,5697
6.763212,5697
6.763411,5761
6.763611,5793
6.763808,5825
6.764011,5713
6.764208,5729
6.764411,5649
6.764606,5697
6.764809,5889
6.765009,6465
6.765209,6417
6.765412,6529
6.765608,6593
6.765807,6481
6.766010,6369
6.766212,6353
6.766408,6289
6.766606,6321
6.766810,6161
6.767010,5665
6.767206,5633
6.767408,5377
6.767612,5377
6.767809,5377
6.768010,5041
6.768208,4913
6.768408,4785
6.768606,4689
6.768807,4609
6.769005,4513
6.769207,4561
6.769407,4433
6.769609,4417
6.769810,4401
6.770007,3872
6.770206,3424
6.770410,2832
6.770608,2064
6.770806,1728
6.771009,1600
6.771209,1616
6.771410,1632
6.771606,1536
6.771808,1376
6.772008,1200
6.772210,1024
6.772405,1056
6.772612,1040
6.772808,1152
6.773008,1088
6.773209,48
6.773412,0
6.773610,0
6.773805,0
6.774013,0
6.774207,0
6.774408,0
6.774607,0
6.774806,0
6.775010,0
6.775211,0
6.775408,0
6.775603,64
6.775811,784
6.776008,1376
6.776208,2256
6.776408,3280
6.776606,4177
6.776808,5057
6.777008,5457
6.777212,5521
6.777410,5537
6.777610,5569
6.777811,5601
6.778011,5665
6.778208,5921
6.778414,5825
6.778608,5953
6.778806,6081
6.779014,6033
6.779207,5937
6.779410,5921
6.779610,5841
6.779807,5857
6.780012,5889
6.780209,5953
6.780407,5937
6.780609,5905
6.780806,5857
6.781007,5873
6.781206,5857
6.781408,5985
6.781607,6641
6.781808,6561
6.782011,6561
6.782205,6673
6.782408,6673
6.782607,6545
6.782809,6481
6.783011,6401
6.783210,6273
6.783407,6193
6.783608,5809
6.783812,5633
6.784010,5441
6.784208,5393
6.784410,5169
6.784611,5089
6.784809,4929
6.785014,4817
6.785211,4705
6.785410,4609
6.785607,4561
6.785806,4497
6.786006,4513
6.786209,4449
6.786411,4353
6.786607,3920
6.786814,3648
6.787010,3008
6.787206,2176
6.787409,1728
6.787603,1664
6.787811,1536
6.788009,1504
6.788206,1472
6.788410,1328
6.788610,1104
6.788810,896
6.789008,912
6.789208,1008
6.789411,1024
6.789609,1040
6.789808,704
6.790009,0
6.790210,0
6.790406,0
6.790606,0
6.790806,0
6.791007,0
6.791208,0
6.791407,0
6.791609,0
6.791808,0
6.792008,0
6.792209,0
6.792410,464
6.792609,1296
6.792809,1952
6.793005,2816
6.793207,3936
6.793412,4849
6.793605,5377
6.793809,5473
