EMG_Value
1584
736
1456
1936
1840
1616
2112
1584
1680
2304
2976
2448
6817
4289
2144
2624
3040
2320
3024
2880
3088
1968
2256
2304
2640
2448
3296
2576
2672
2800
3280
2832
2864
2368
3200
1984
2592
3168
3328
2688
4000
2256
2368
3360
2656
2176
5009
4881
3328
2288
2272
2320
3040
3040
2624
3072
2560
2896
2976
2368
2512
3264
3760
3008
2384
2080
2528
2608
2640
2208
2464
2656
2256
3072
4785
3648
2896
2496
2720
2688
2704
2720
2768
2832
2240
2400
2752
2704
3104
3088
2400
2816
3328
2624
2736
2448
2592
2896
2000
3456
3040
2512
2736
2464
2560
8610
5873
6049
2624
2464
2368
2320
3168
3232
2448
6993
2768
7329
4993
2336
2576
2688
2256
2336
2992
2832
2976
3024
2896
2784
2960
3344
2272
2560
2208
2368
2496
3024
3248
2912
3200
2768
3024
2352
3104
2688
2448
2512
2832
3024
3040
2288
2928
2528
2576
5057
2512
3280
5825
2624
2944
2400
3104
4785
7521
6193
3936
2496
2720
2512
2912
2320
2768
2224
3136
3248
3040
2944
3088
3136
3008
2480
2784
3840
3200
2496
3232
2304
2400
2592
2448
7985
4769
6785
3888
2608
3120
3200
2592
2960
3472
2576
1856
2544
2672
2352
2272
2336
3120
4865
3488
3040
2960
2768
2464
3568
2496
2768
2016
3904
4048
2384
2912
2512
3568
2656
5297
4032
2640
2624
2768
2336
2240
4545
4577
3152
2144
3024
2416
2320
1968
2512
4225
4353
2144
2704
2560
3472
3472
3648
3344
2896
2768
2912
2800
2720
2448
3296
2464
2384
2384
3280
3568
4481
3600
2640
2368
2448
2528
2848
2288
2480
2656
4097
3584
3088
3600
2560
2784
3264
3456
2704
2592
3104
3264
2544
3008
2640
3760
3056
2960
2816
4625
2304
8274
2608
2368
2960
3344
2368
2480
1568
2496
1408
1472
2224
1600
1536
1920
3056
2704
1680
1680
2528
1824
1792
1792
1568
1552
2112
2000
2592
1920
3856
4753
1616
1664
2064
2000
2080
2608
3088
3488
2464
1984
2720
3536
4161
2016
4593
3856
3168
2320
1984
1920
1888
1968
1696
2720
3024
2816
1792
2080
1952
1520
2352
2304
1568
3040
5057
2048
1696
2208
2256
2560
1344
1680
3840
1680
2208
2096
1792
2048
1888
2240
2560
1744
2272
1120
1952
2064
2304
1968
3168
2560
1616
1472
1680
1872
1856
2208
2048
3264
3584
2752
3504
2384
7201
3248
3392
2608
2864
2848
3488
3216
2720
2608
2704
3136
2592
2672
3088
2944
2608
2976
2752
2464
3152
2912
2464
2832
2752
2560
2512
2464
3120
2640
2864
2432
2704
4737
3792
3392
2608
2592
2368
3232
3840
2688
2544
2528
2640
2976
2688
3264
2592
3360
2256
2704
2656
2592
2480
2784
2592
2656
2704
3008
6689
3088
7409
6529
4737
3504
2432
2080
3280
2624
2992
2144
2816
2256
3136
2752
3840
2880
2272
2624
2576
4353
3344
2736
3408
3264
2480
3472
3568
3152
2880
4000
3792
2656
2832
2752
2880
3264
2480
2400
2416
2560
3440
3152
2832
2384
2656
2640
2960
2832
3168
2896
4064
3024
2640
3904
6481
7137
7729
3008
2992
2576
2592
2736
3104
3280
2752
2336
2752
4225
3296
3152
2656
3072
3376
3584
2944
2624
2544
2736
2720
2640
2656
2592
2448
2976
3568
3328
3088
2752
3088
3056
2944
3024
3072
3136
2272
2864
2112
2864
2640
2848
2928
2752
3232
2832
3328
3616
2912
2864
2976
2384
2624
2304
3600
3536
2752
2320
2720
2880
4545
3728
2880
2448
3072
3904
2480
2864
2496
4801
3360
2928
2992
2240
2752
2784
4785
3728
2704
2272
3392
3376
3792
2352
1616
2096
1664
2336
2432
2608
2528
3856
2080
2336
3456
2464
2752
3376
3232
2976
2560
2944
9138
3088
6369
2976
3616
4321
2848
3104
2976
2384
4305
2800
7377
4689
2368
3024
3136
3536
3504
2688
2880
2608
2816
3328
3888
2784
2496
3344
3616
2688
3200
2752
2592
2928
2816
2528
2992
2576
2784
3184
3344
2688
4705
4801
3024
2880
3072
2656
2896
2560
3232
2704
2224
3648
3168
2496
2704
4048
4016
2832
3152
3040
2944
2784
2640
2752
3328
2704
2128
3248
3376
3088
2464
2592
2112
3584
4000
2928
3904
3968
2784
2896
2608
2240
5777
3424
2816
2512
2752
3552
3136
2512
3232
2400
2880
3264
3520
2688
2880
2960
3088
3072
4321
3552
3216
2224
3376
2944
2688
2592
3312
3808
2480
2720
3072
3984
3344
2512
3168
3120
3424
3152
2272
3248
2768
3024
2480
2784
4657
6225
4737
4881
3584
2352
3072
2512
2400
3072
3152
3136
3232
4609
2896
2992
3280
2752
3344
2864
3152
3328
3312
3168
2768
2496
2864
2960
2688
2768
4513
3008
3600
3344
4241
3072
2608
3200
2752
2752
3024
2832
3216
2912
3232
4545
2416
3232
4048
3280
2576
3872
1984
2864
2864
3136
3200
2752
2208
3360
2976
4897
3696
2864
2704
3904
4289
2384
2912
2768
3024
3200
2592
3040
2848
2816
3232
2912
2736
3104
2576
4129
3504
6913
4929
2736
3472
3792
4241
3296
3008
2256
2768
2864
3184
2720
2912
2864
3616
3072
4225
3008
3072
3520
4321
8946
4000
3584
2880
2912
3200
2960
2784
3200
3584
3360
3264
3136
3264
3136
2112
3088
3040
3200
4209
3120
2960
3504
3248
2768
2992
3120
3408
2848
2848
3440
2560
3328
2400
3264
2736
4305
3456
2736
3424
2992
2592
3232
4337
2848
2816
2432
2992
2464
2192
2432
1760
2096
3328
2752
2656
1632
2016
2000
1760
1824
2512
2048
1952
1888
2080
2736
2656
2560
1904
2048
1808
3488
2416
2208
2176
1856
2240
1872
2144
2992
2000
1728
1856
1744
1808
1616
1776
2656
1744
2352
1456
2096
2240
2528
2176
2144
1744
1712
704
1840
3408
3600
3040
3008
2000
1952
2224
2896
2192
1552
3936
10274
5329
5953
6449
2784
2528
3040
2000
2304
1824
2352
2128
1920
2048
1760
2096
2128
2112
1680
2016
1744
1808
3920
1952
1952
1696
1968
2640
2864
2464
2912
2400
2176
3824
2736
2688
2224
2608
3152
1584
3520
1968
2976
2208
3456
2480
2192
3248
1744
3760
3648
3472
1728
2560
3344
1968
1520
3088
3088
4064
2224
1728
2368
4129
2832
3232
3712
3392
2720
3424
2928
2848
3616
2976
2848
2544
3536
2896
2464
2688
3104
3472
3104
3632
2928
2448
2656
2240
2992
3072
2912
3872
2496
2896
2592
3120
3536
3728
3584
3152
3696
3008
2592
2880
3232
3920
3424
2288
2880
2464
2816
3472
2944
3296
3296
2592
3200
3712
3472
4273
3312
2864
3600
2336
2656
3600
3792
2736
2992
2640
3008
2800
3392
3488
3760
3360
2384
3104
2592
2560
3648
2880
3808
3984
2576
4801
4561
4401
3040
2656
2992
2736
5169
3600
2640
3184
3216
2448
4305
5281
2752
2624
2960
2560
2272
5217
7841
5041
3488
2944
4177
2528
5361
4625
3664
2496
3264
2816
2880
2848
2896
4289
2896
2640
2720
2752
5201
3200
2992
3472
3904
3568
3040
3376
2784
3376
3152
2832
3472
3152
3408
2928
2768
3072
2128
2352
3728
3648
3040
3104
2976
3872
4209
2240
3312
4481
4080
3024
2464
3216
2976
2560
2272
3904
4545
3312
2640
2480
3824
2736
2528
3584
4497
3344
3200
2656
1808
5937
2576
3856
2896
2192
2192
3296
2864
2624
2688
3712
3744
3232
3936
3600
3600
3520
2624
2352
2464
3072
3600
3984
3584
3056
3216
2496
2560
3392
2784
3728
2640
4625
4145
3648
3184
2560
3808
4417
3120
3680
3552
2944
2576
3168
2880
3120
3264
4273
3520
2304
3424
6113
5873
9778
6225
2944
4145
4705
5729
3152
4161
3200
3680
3248
3632
3424
2608
3408
3152
2944
3760
3008
2992
3824
3472
2848
2736
3680
3424
3200
3152
2864
3296
3472
3360
2720
3600
2720
3632
3280
3344
3632
2704
2912
3168
4369
3792
2896
2704
3248
2704
3520
3184
2560
3328
3152
3136
5089
4321
3360
3456
2512
3760
4032
3648
3232
3344
3600
2816
3840
2896
2752
3584
3200
3104
3520
2592
2896
2896
3376
3024
2768
3424
3520
2784
3024
3232
3376
3776
3360
3008
3552
3264
2512
3424
4769
2656
3216
4000
2592
2464
2752
2944
3216
3408
2736
2656
3536
2272
3584
2512
4401
4305
3712
3664
2832
2592
4064
2624
4257
2176
3984
2864
3728
3344
3792
3472
3504
2848
3936
3120
3168
3776
2656
2592
2288
4032
2656
2816
2704
3120
4545
2848
3200
3840
2880
4032
3664
3264
2848
2720
3152
3232
3392
3248
5169
8722
3792
3552
4481
2832
2864
2880
4609
3344
3168
3424
4449
3200
2864
3856
2864
3280
3168
3408
2976
3920
2736
3248
3712
3968
2944
2432
2656
3728
3648
3040
3520
2816
2576
2400
2864
3040
3504
6161
3728
3088
3776
4289
3152
2688
3856
3248
2832
2960
2512
3296
3024
3616
2912
2880
3376
3744
4833
3216
2896
2704
2720
4849
2560
2912
2368
3632
3776
3200
2896
3984
3648
2400
4048
2928
3680
3648
3232
3024
2592
3104
2528
4641
2912
3520
2864
3024
3280
3968
3136
5473
5217
4641
2960
1920
1952
3248
2080
1760
2752
2832
1920
1680
2160
7569
6913
4433
8177
3888
2800
3168
3264
3344
2816
2912
3984
3632
3056
3984
3488
3232
2560
2816
3264
3872
2992
3296
3408
3104
3376
2656
2928
3536
2448
2928
3280
3280
3040
2704
2864
2752
6785
3808
2576
2976
3680
4016
3008
3536
2784
3408
3936
3024
2960
3072
2960
3040
1808
2064
2432
2112
1664
2032
2720
3008
2496
2592
1968
2368
1536
1872
2336
1968
2048
2416
2256
1904
2784
3808
3152
4449
3008
2864
2352
3136
4417
6913
3536
3008
3216
2464
3328
4193
3504
3072
3072
3456
2912
2912
3520
3520
3136
3360
3264
4145
4080
3648
2960
2816
3088
4145
2496
2384
3504
3904
3824
2656
2608
3984
2752
4337
4305
3248
3904
2784
2640
3344
2848
3568
3456
3488
3728
3248
3760
3648
3088
4353
3728
3152
2848
2880
3152
3296
4161
4513
3152
4000
6145
8177
3888
3168
3056
3520
3680
3152
3808
3200
3264
3024
2464
2768
3376
3280
3792
4305
3264
4032
4321
3184
2960
3584
3792
3104
3008
4145
4577
3360
2784
2544
4913
3984
2656
2960
3344
3408
3968
3040
4865
2720
2528
6929
4064
3168
2992
2832
3088
3264
3472
3920
2960
2944
3104
2944
3568
2864
3488
4737
3600
2368
2752
2736
3760
3216
3200
3536
2992
3264
3024
3152
3376
3888
3600
3232
3456
3440
3296
3568
3200
2704
3552
3520
3472
2896
3904
3296
3136
3552
3520
3376
3072
2752
4385
4177
4048
2864
3216
3408
2832
3264
4273
3472
3248
2592
3840
3328
2400
4113
4305
4401
3520
3376
3040
3408
2608
3296
3840
3584
3616
3504
3648
2960
2912
3296
3984
3568
3440
5473
4417
3104
3072
3120
2560
2944
2960
10738
8658
6081
4000
3360
4353
3632
3680
1904
2176
2480
1856
2688
1856
2448
2304
2144
2976
2400
2528
3280
2128
2400
2240
1536
2160
2192
1984
3632
2080
2128
2656
2256
2432
2320
2528
3440
2176
1840
1776
2368
2160
2080
1696
2176
2480
2064
2544
2448
2000
2080
1952
2336
2160
1904
3504
2080
1920
1824
1984
2624
1872
2368
3936
2224
1984
2048
1792
2080
1664
2272
3696
2320
2192
1984
1808
1792
2240
2064
2576
2048
1856
1664
2272
2704
1792
1968
2224
3264
3200
3648
1888
2464
2496
1856
2384
1792
1888
2496
3792
4113
3808
3104
2832
3504
4225
2848
3088
3104
4016
4177
4129
3408
3712
3488
3568
6145
3840
4177
4193
3840
2608
3152
4080
3504
3968
3648
3408
3008
3424
3088
2864
3536
3104
3920
3456
3536
3360
3408
3264
3344
3968
2896
3248
3184
3216
3328
3680
3344
2880
3328
3008
3600
3680
3248
3136
3472
3264
3104
3296
3120
3232
2704
2976
3712
3008
3584
3296
3312
3264
3456
3312
3712
2944
3424
3088
3008
3904
2528
3152
3424
3280
3376
3520
4561
2880
4401
3648
2912
4241
2720
3376
3824
3088
2592
3024
3440
3136
3776
3168
3616
7265
8354
7569
4961
3088
3792
3424
3632
3584
3216
8610
5329
5345
3072
3248
4064
2656
3616
3392
3872
3360
3552
2608
3408
4193
3600
3856
3408
3424
3472
2880
2864
2816
3184
4609
3648
3008
3440
3840
3568
2976
2560
4193
5473
3040
3168
3472
3024
3232
3856
3488
3552
3312
3072
3376
5521
3968
3376
2464
3280
3152
4080
4064
3712
3616
3952
2960
3360
3104
3264
2944
3904
2912
3520
3296
3120
3744
2560
2752
3360
3792
3376
2896
3360
3088
3296
3520
3472
2832
2784
3648
7137
11410
8754
3024
2944
4577
3408
3024
3296
3200
3808
3312
2992
3200
3584
3312
4048
3216
3616
3504
5697
2624
2464
3504
2048
2240
1936
2176
2016
1552
2400
4913
2592
1952
2960
3248
3040
3472
2896
3168
2848
3248
3520
3200
3984
3024
4273
3792
2960
2944
3872
3632
2992
3008
3488
3456
3600
2448
3248
2896
2944
4401
4097
3472
3008
4016
3392
2912
3024
3760
4080
3888
2752
2352
3088
3936
3776
3152
3584
3584
3392
3488
2992
3792
4048
3024
3152
3568
3424
4353
4305
3696
3136
3520
3712
3456
3456
3616
3840
4161
2832
2800
3808
3408
3376
3104
3760
2976
3632
3168
3072
3152
3264
3584
3200
3968
3328
3856
3152
3152
3120
3296
3264
3680
3232
3424
3536
3824
3344
2896
2992
4625
3040
3168
3616
3312
2576
2960
4961
3568
3008
3152
4129
3904
3456
3488
4401
7617
3952
10946
5793
3264
2608
3296
3344
4481
3632
2448
3152
2304
4433
3088
2880
2896
6753
4080
2496
4289
2592
2896
3056
3152
4097
3136
4145
4417
3920
3376
3264
2400
3504
4161
3792
2688
3584
3472
3152
2736
2864
3952
3104
4032
3632
3232
3776
3600
3520
3648
3072
4321
3584
2848
3328
2432
3648
4016
4625
3536
3280
3712
3840
3360
3504
2880
4113
3584
4289
3664
2784
3008
2624
3008
4385
4449
3360
3472
3072
3776
5857
3552
4129
3216
2832
3440
2768
3488
2848
4241
3584
2768
4129
2848
3216
3376
3520
3120
4225
3328
4000
3360
3088
3248
3264
3216
2784
3696
3712
3456
3280
3232
3408
4145
2896
3024
2896
3072
4849
4097
2736
3168
3488
3200
3040
2912
3168
3312
3472
3904
3424
3328
3488
3856
2928
3168
4241
3408
3392
2784
3728
3408
8177
3856
3072
2896
3392
3904
3392
3008
3600
3792
3488
2912
4064
3840
3264
3328
3152
3024
3552
3904
3120
4000
3424
3808
3232
3328
2304
2048
1728
2176
2224
2400
2752
2704
3120
1664
3648
4737
3808
3152
4129
3552
3024
3792
2800
3728
3680
3648
3200
3600
3216
2976
3216
3600
2896
2832
2512
4177
3872
3472
3264
3904
3936
3376
3120
2608
3888
3632
2896
3424
3744
3632
3536
4305
3344
3568
3664
3072
3072
3360
3360
3264
2080
2992
2240
1936
1808
1904
2784
2336
1952
3008
2592
1888
3488
3984
5265
4289
7521
4241
2976
3200
4113
3424
3168
2832
4881
4513
3072
3264
3072
3616
3408
3616
3216
3808
3168
3856
3984
3280
3072
2976
3216
3200
7809
4401
4000
3376
3072
7649
7585
4801
4161
3520
3680
3248
4048
2592
3072
5665
3488
3488
3088
3152
2896
3280
2992
2656
5409
3952
4161
3728
3408
3664
3856
3456
3344
2944
2640
4401
2768
3504
2896
3200
3728
2912
3984
3616
3936
2512
3344
3712
5697
4000
2816
3488
3488
3456
3824
2848
3104
3232
3344
3600
4257
5665
3488
3216
3392
3536
3536
4129
3024
3088
3456
4016
2912
3136
3504
3584
3392
3392
3648
3648
3840
3840
3536
3392
3536
3712
3840
3136
3296
3792
2992
3264
3520
3904
4129
4225
3072
3296
4529
2816
2832
3376
2960
4433
3760
4289
3296
3392
3808
4145
3120
2576
4161
4433
3344
2640
2976
3424
4225
4032
3808
3104
2800
4577
3904
3616
3136
2864
2896
3312
5521
3760
4113
2992
2816
3280
3792
3552
3376
3568
3040
3280
4097
3280
3552
3168
3376
3952
3920
2800
2624
2768
3104
9282
9650
7857
3600
3472
2944
3088
3328
3760
4449
4113
2928
3904
4673
3744
3408
3264
3088
5041
4817
3648
3728
3344
3968
3088
3216
3232
2864
3472
3088
4161
4177
3120
3152
3200
3552
3856
3760
3888
3920
3680
3520
2992
4433
3920
3616
3376
3440
2848
2272
1760
2256
1952
1728
2304
2176
3008
2272
2560
5809
2496
2112
1904
2000
2144
2176
2368
4113
2144
2512
2512
2128
2256
2400
1728
2512
2208
2256
1552
1840
2016
1792
1888
2400
2288
1824
2816
1968
2528
2224
2256
2016
2128
2224
3200
1984
2208
1568
4817
8177
2400
7329
5377
2896
1984
2656
1680
2528
1952
2784
4577
2880
2176
4801
4225
2896
3840
1840
2144
1728
2320
2416
2096
1808
1744
2144
2208
2688
1824
2528
2288
1792
3120
2352
2112
1664
2000
1968
2352
1792
2912
2656
2560
1312
1744
2000
3408
5329
3728
2480
3344
3520
2864
4129
3376
3472
3632
3296
3424
3344
3264
3344
3360
4449
3904
4545
2960
2688
2688
3280
2624
6097
3808
3712
3936
3216
2896
2768
2528
4241
4609
4177
3408
2608
3552
3360
4048
3232
3360
5185
3728
3568
3648
3760
3728
3456
3584
3296
3472
2704
4417
3808
2848
2608
4417
2992
3072
2880
3712
2912
6465
3472
2992
3648
3424
3216
4161
3936
2880
3472
3072
2688
3024
3536
4016
3888
3552
2992
3664
3520
2688
3600
2960
5105
4673
6433
3840
3296
3248
3856
3408
3088
5601
5265
3632
2752
2576
4497
4080
2656
2976
2512
2880
5041
4209
3296
4305
4032
3712
4016
3968
3024
3472
3792
3600
4241
3504
3504
3936
3248
3952
3936
4289
4145
3936
3664
4753
3104
3600
4481
4625
3280
2720
3056
3376
4064
2432
3040
3312
4961
3632
4193
4561
4961
4113
3456
3856
3520
3216
3264
3520
3776
3504
2864
4225
6849
4481
3616
3168
4385
3616
3760
4177
4481
4737
3088
2944
3120
3600
3168
3088
3536
5265
2864
3088
3664
3984
3472
3280
3664
3888
3376
3712
4881
3504
3072
3248
3616
3376
3392
5537
3296
10034
4913
3648
3824
3888
3280
4161
1680
1888
2320
2112
1984
2304
2272
2144
1760
1792
2400
4241
4064
3328
4449
4929
3760
3712
3200
3296
3520
3120
3328
3824
2832
3616
3360
2880
4881
4353
3344
4321
4337
3712
3104
3280
4737
3712
4016
4048
3232
3152
3680
3520
3376
3488
6033
2816
3552
3216
5169
4177
3920
4369
4417
3040
3456
4032
4305
4177
4609
3152
3856
3040
3168
3904
2800
4113
3424
4785
4097
3440
3376
3472
2704
3376
4497
2944
3744
4513
3472
2608
2896
3552
4737
4241
3360
3984
3792
3424
3152
3616
3216
3744
4048
4080
3472
3536
4625
3888
3408
3152
3152
4161
3280
4032
4048
4289
3328
3312
5473
2832
9426
4913
3904
3392
3152
3024
2736
3488
2880
3504
2480
3648
4497
3152
3984
4177
3904
3648
2848
2768
2976
4385
3456
2880
3728
4481
4193
3168
3488
3120
3808
4433
3936
3648
4032
3296
3024
4225
3616
3408
3008
4385
3920
3344
3280
3808
3264
4113
4193
3232
4000
2960
3296
2960
4369
4897
2976
3712
3840
3552
2752
4097
3216
3264
3664
3328
3632
3280
4993
5089
4241
5185
3344
3904
4016
4881
2976
2544
3776
2896
4737
4897
4961
3216
3264
4769
3024
5025
3968
3488
3584
3136
3472
3888
3376
2880
3616
3680
2688
2976
3408
3024
4353
7857
4000
3200
2688
3888
3712
4193
3856
3216
4097
3520
3376
2592
2864
4273
3648
3648
3936
4000
2944
4497
3040
5121
7297
10018
5313
3920
4161
4353
2800
2960
4289
4016
4529
2784
3760
2656
4113
3680
2848
3616
3088
3792
4481
3616
3792
3872
3984
4113
3728
4000
3664
3120
4497
3120
3248
2880
3744
3712
3408
4064
3200
3168
4289
5729
4048
4417
3680
3040
3616
3088
3392
3072
4064
3968
4129
4113
2992
3024
4433
3776
4737
3248
3856
4321
2288
3056
2336
2560
3456
3120
2240
1760
3648
2800
2496
2336
2112
2384
1792
1632
2944
2464
2432
2752
1824
1696
2128
2432
2528
2240
1888
2048
1840
2720
2368
2080
2592
3024
2880
2000
1744
1568
1616
3424
7441
2240
8161
5025
3008
1664
2480
2368
1952
1808
2288
1680
1856
2288
2224
2656
2224
1824
2848
2368
2416
1056
2352
2960
2992
2240
1968
1744
2064
2752
2240
2544
3856
3536
2656
2432
2000
3088
2336
2144
1936
1664
2512
2720
2000
2560
2224
2192
2192
2272
2000
1952
1696
2560
1632
2384
2992
1936
1712
2816
3296
3136
1808
2208
2912
2240
1872
1472
1856
2144
2832
3616
4545
3904
4289
4032
2752
3376
4016
4048
3840
2912
3120
2720
3936
3984
4321
3504
2864
3232
4193
3744
3264
4048
4481
3152
3568
3488
3008
4673
4064
3504
3968
3632
3504
3152
3408
4289
3312
3376
3616
4545
3488
3536
3376
3744
4577
3632
3440
3408
2896
3680
6497
4769
2816
2496
4657
3520
4449
3856
2800
4289
2880
3152
5729
4177
3504
4497
3584
5153
4369
2544
3344
4657
3376
4000
3328
3264
3520
3152
4177
3744
3328
3856
3648
10466
4897
4705
3152
3392
3616
4769
4369
3600
2656
4129
3504
3936
3472
3856
4064
3472
3520
3424
2848
5185
5345
6049
3664
3536
3824
3120
4305
4177
2816
4032
3520
3520
3232
3584
3680
3632
3904
4225
3888
4064
2608
3280
3328
4481
3648
4064
3232
2960
4945
4577
3344
2896
3120
6561
4961
3296
3328
2368
3488
4593
3424
3136
2736
4305
6033
3392
3856
3872
4337
3296
3440
5553
5041
4032
2496
3696
2976
3472
3600
3632
4129
3808
3776
4657
5857
3536
3008
3280
2352
4032
4145
4273
3472
3056
1808
3328
3616
3856
4385
5361
3136
5425
4401
2688
2304
1936
2016
3136
6865
6833
4353
8850
6273
3040
2336
3632
3808
3248
3248
4080
3216
3216
3712
4097
3760
3616
4321
4353
3664
3552
3088
3344
4673
4497
3840
4321
3648
3088
3760
4193
3872
3664
3008
3664
3968
3120
3648
3504
3280
3152
5713
3936
4289
3296
3664
2576
4225
4945
4097
3408
2272
3776
2880
3408
3040
4385
4593
5153
3616
3472
3984
3888
3360
3952
3040
3984
4273
4241
3168
3296
3888
4369
4032
4016
3712
3024
3968
4433
3584
2128
4113
4097
2912
2816
3936
6705
3984
2384
3504
3856
4113
4353
3232
3728
3008
4305
4625
2064
3280
4064
3136
3152
2912
5025
3872
4241
3632
2736
4769
4241
5969
8690
6561
3504
2864
2784
4225
4321
3088
3792
3424
4032
4321
3328
3792
4705
4048
3040
3824
3424
3200
3648
3680
3520
3248
3616
3888
2224
3024
3744
4801
5201
3648
4097
3904
4417
2912
3408
4129
2576
4048
4161
1616
3152
6913
4032
4657
3936
3616
3232
3360
3680
3200
3312
3136
3840
3088
4016
3792
3104
3808
3280
3216
3728
3888
4913
2768
3856
4113
3648
3856
2768
3280
2368
5105
3168
3984
2768
6209
7169
4273
4129
4209
3456
2928
3008
3936
3136
3072
3664
2624
4016
4305
5905
4161
3552
3712
3120
4016
3232
3232
2128
4721
9138
9874
8898
3504
3136
3088
2592
3424
4449
3632
3424
3328
3920
3264
2864
4064
3696
3360
3600
3296
4305
5729
5953
3984
2752
4465
3904
3456
4032
3232
3344
4337
4080
3616
3408
4048
2992
4369
1376
4000
5057
6161
4449
3728
3344
3824
4032
3632
3120
3872
2400
3360
2960
1760
3680
4897
3328
3504
2112
7329
4497
2576
3792
3264
4113
2400
3584
4513
3520
3968
3584
3680
4417
3920
4577
2832
3632
4321
3616
2960
2240
2384
3872
2656
1872
3488
2256
1856
1568
2960
3008
2624
1936
2176
3584
3280
3264
3344
3776
5089
4097
2688
4145
3808
3392
4064
3792
4305
3328
3552
3392
3408
3840
3536
4080
3728
5761
11778
4849
14883
4897
3648
2720
4177
4145
3712
3632
2976
4241
4113
3264
3392
3568
3552
3936
2480
3216
2112
4289
3552
3552
3664
3968
2720
3632
5297
4993
3808
3328
4177
4289
3344
2944
3472
2816
4080
2784
912
3728
4881
3840
3936
1968
2656
4545
4465
3552
3200
4161
4016
3072
2128
3872
1984
4129
3712
3584
2624
4625
2576
5137
3152
3216
3808
3248
2784
3280
3072
3120
5089
5729
6449
5025
3904
3136
3712
3120
3584
4305
3472
3152
3712
4225
2768
3376
3856
3520
4641
4449
3680
3600
1760
5489
2112
3392
4417
1424
3664
2400
3664
4529
2544
3728
4097
6609
3728
3184
4241
2064
2864
2256
4048
2976
3168
3728
5041
3344
1632
3664
3872
3648
3872
4129
3472
720
2240
3488
4064
3392
7617
3632
4369
3456
3392
4048
1696
4145
4993
5377
5793
4753
3168
3152
4193
1952
1920
1952
3536
5041
4529
3216
3168
3216
2096
3872
2480
1408
3984
3376
3280
2240
4032
2736
3904
2768
3280
1872
3152
4305
3728
3360
4048
3840
4753
3872
4257
3696
2304
3520
3808
2528
3840
3072
3968
4289
2768
1872
3280
3728
3888
2688
2960
4833
2768
5857
3904
3664
2896
2000
3424
5905
4177
2656
1808
3072
4177
3456
3952
2464
2672
3504
4497
5265
2448
3872
3504
3584
4145
896
4113
4945
4817
3616
1920
3328
1408
6305
5425
3536
3440
3920
2976
3808
2320
2896
4353
3808
3392
1072
3232
3488
3552
6561
6993
4369
3648
1424
1360
8097
9490
6625
4064
3504
4881
4529
2288
3152
1808
3392
2736
4369
2576
2016
2112
1808
2512
1808
2128
2672
2112
2000
2880
2336
2064
1936
1984
2272
2192
2256
3408
2208
2336
1728
1744
2704
3824
2192
2464
1712
1680
2592
2352
2272
2784
2080
2048
1984
2640
2000
1872
4673
2976
2480
1968
2000
2336
2080
1744
2704
1872
2208
1760
2240
2640
1920
2816
4129
1968
1696
1872
1856
2576
1840
2048
2816
2336
2592
4289
2112
1792
1888
2144
2608
1744
2400
3600
2304
2000
2208
3136
2768
3712
2800
4865
1920
1712
2144
2592
2528
2368
2736
3056
1936
1872
1760
2384
3472
5473
7137
4064
3152
5217
4561
2384
2096
1632
2288
2848
4032
5073
3216
4673
3776
4497
7377
8370
8866
4417
3808
3520
2016
4048
3616
1712
1968
3968
1856
4016
4064
3520
512
4385
5041
3872
3776
3776
3088
1360
3504
1600
2192
2160
1728
3248
4801
4321
4225
2080
3616
4817
2480
3856
2304
3392
3232
3776
2016
2576
1712
3184
3360
3456
1760
6321
3856
3792
1728
3984
3744
3152
2736
3536
3472
1888
4753
4193
3280
2272
816
3232
2336
4609
4369
4257
4225
1744
3792
2608
3760
3744
4097
4193
3664
3888
2816
3552
3984
2816
1168
1984
1408
3472
3344
1872
2576
3920
1296
3728
4449
3024
4048
2560
5297
4529
1728
3312
1872
4177
2480
3264
3968
3312
3408
3520
5041
3552
1184
3872
2208
1840
4945
4097
3936
8386
5361
2160
3552
2384
4273
2992
3376
5281
4785
4257
960
1568
4369
4369
3280
3472
1440
3392
4481
2752
2464
1840
3920
3712
5729
2784
2432
2368
4097
3584
3328
3888
4064
3520
3328
3456
3664
3344
4145
2352
4353
2096
1120
4673
1792
3584
3920
3856
464
3616
2144
4193
5153
2368
5489
3728
304
3696
3280
3392
3872
5121
4449
2720
1648
4705
3888
416
3904
3728
2960
3568
2208
2400
1680
2464
2240
2128
2624
2624
2336
1776
2112
2096
1968
1184
2768
1232
4433
1968
1248
3680
3616
2880
2976
4080
2192
1808
2720
4305
3264
2320
3280
2784
2640
4000
3264
5025
4321
2464
2112
3744
3776
1104
2224
3168
2784
3920
2128
3344
640
6561
3040
1584
3392
2688
1792
10594
4481
2336
4481
2064
3712
3792
1760
848
4545
6321
3840
2464
3152
3104
3936
3552
3456
3152
3888
2336
4513
4561
2256
2288
4097
1760
3296
2176
4785
4737
3392
1744
5457
4257
1152
1808
1248
5073
5201
1600
2320
2848
3360
2384
2448
4080
3456
2192
3472
4449
2224
1952
4865
4129
2032
3504
4064
3648
2912
1488
2784
3088
3744
2816
3584
3808
3216
3760
3552
4257
4000
2464
1664
4016
2512
3872
3712
4241
1552
2944
2704
3280
2272
1872
3600
3424
2576
1376
2256
3312
4145
3216
4305
1536
3728
3360
1680
3264
4321
3888
4785
4993
3744
3568
4385
2176
1552
3632
1920
1728
736
1104
1072
4577
4273
2720
4000
2576
1328
3136
1664
4577
5793
3856
2960
4337
9298
6673
2432
2432
4048
2800
1776
1472
4945
2752
2480
3376
848
3392
7377
4785
1808
3712
1568
4385
3488
3632
1472
2080
3680
2368
4080
4961
2352
2208
1648
2208
5985
2656
4064
1552
1360
3008
3344
4689
3120
2112
3568
3744
2896
1680
2576
2656
1968
5313
3872
3808
1984
2432
1792
1600
2752
2944
2880
2944
1088
4032
2576
864
3216
1888
1088
3856
2160
3328
2528
3488
2848
3344
2656
3984
3344
4097
4064
2592
3216
1712
4000
1936
4032
4705
3376
4513
2448
2704
1200
2864
3792
3600
1152
2080
3712
2464
2496
7473
16259
11298
4225
3184
1568
2096
2096
3072
2768
3552
2384
2320
1696
2512
2144
2288
1728
1936
2576
1968
1584
3392
2720
2304
4673
6433
3504
1360
1888
4577
3424
3344
1856
1584
2864
2064
2240
2384
4849
4529
1984
2816
3280
3152
1840
2944
3888
2064
4080
2688
3984
3968
3904
2096
3280
3840
2512
3744
1888
5073
4497
1856
2720
1968
4865
4513
2592
1712
992
3424
1568
4705
3152
4385
3344
3776
1456
3232
2560
2880
2048
2704
2944
2912
1568
2336
4113
2320
1984
2304
2192
2368
4401
3840
2352
1984
2704
1568
1568
2016
4177
2304
3776
3200
2624
2768
1680
5169
1680
2848
4945
4097
672
2496
4080
1920
3168
1632
1936
3280
4657
2896
4801
4849
2016
4064
1936
1552
3392
3456
4016
2096
3168
1968
2608
1168
4129
4433
2192
1104
1728
3360
4000
3920
1872
4641
2320
1120
1200
2272
1872
2464
2848
2912
2816
2528
3152
2048
2560
2256
3728
2864
3296
3936
1280
3536
1664
3200
832
5089
2880
3088
2208
2384
2272
3776
2192
736
2880
2960
2720
2960
4032
720
1584
2192
1360
2336
784
2272
7201
7105
4865
3568
2096
1856
2656
3216
2640
3072
2064
3536
3328
3360
976
2368
1440
1280
4064
5297
2800
2864
3152
6593
3840
1808
3040
1536
944
1728
2416
1936
4113
1648
2208
8882
3552
5537
2896
2336
1920
2528
2736
1760
2288
576
1440
3312
1840
2352
1616
5249
6977
3168
2784
3136
3120
1216
3984
2960
2016
1440
1952
2544
4481
6241
2496
3344
1792
2848
4177
2096
848
2256
2992
3728
3728
2704
2400
960
1744
2080
4529
2256
3232
3280
2464
3264
2240
2048
3232
4064
2272
2224
3232
2048
1744
1968
1856
4016
3280
3536
2272
2896
2448
4305
1440
3328
2048
896
2192
1872
3024
6081
6737
1600
2784
2048
2112
688
3264
7233
5089
2048
2176
1920
1792
2800
2528
1200
7281
2448
6929
4032
3104
2144
2224
2480
1824
1712
2864
2224
2528
2640
2080
2336
2288
1856
2176
1856
2368
2400
1936
1888
2208
1888
2464
2480
2160
1760
2272
2624
2272
2832
2800
2256
2304
2368
1760
2320
1920
2400
3200
2496
3248
1936
1888
2320
2400
2512
2656
2288
2336
3824
2208
1792
1728
1728
2576
2480
1856
2768
3520
2992
3232
1632
1920
2208
6017
5153
2000
4145
4993
4401
2192
1760
1984
2192
2000
2224
2112
2064
2480
3968
2400
2288
2384
1920
2048
1984
2512
2544
3728
1888
2464
3808
3424
2992
1552
848
624
5409
3200
2864
2560
1968
2496
3664
2432
2576
1536
1600
2688
2800
1120
720
6033
3008
1872
2224
2992
2704
2688
3152
3360
2624
1376
352
2304
2832
3616
2560
3120
3536
2992
1424
1728
864
4481
6305
2720
3728
1360
2400
3024
2128
2864
2096
1984
2496
3328
2112
2096
2768
1504
4000
2288
2048
1456
1568
944
896
4080
4000
2608
3168
2736
2528
2624
1600
3040
3552
4289
1248
1328
4273
4913
6801
3904
3968
2192
1760
4561
3424
1040
3024
2880
1728
3120
2976
1440
2544
2784
1488
800
1056
3008
3760
1904
1808
1952
1936
1728
2000
2832
2512
1968
6369
4193
1952
1824
2768
1504
1760
1792
2480
2096
1680
3248
2384
1776
3120
2960
2256
1664
5281
2688
928
4097
1792
2960
2688
2368
1856
1120
1920
2608
2208
1600
3712
2784
2944
2352
816
672
5313
5313
3072
2784
1376
1312
1696
2192
2016
2192
912
1408
5409
5249
2896
3600
2704
1376
1712
1328
1232
848
3040
1696
560
4657
5969
3552
4129
2688
2464
4032
2368
3136
1360
1744
1456
1328
1792
2080
2784
2080
1376
2576
4753
3424
1712
2176
1616
2592
2336
1872
3760
1968
2144
2208
1872
2080
2000
2048
1920
4673
8594
2640
6673
4000
4801
2640
1536
2816
1936
4305
2480
1072
1600
2688
3616
2960
2704
2752
3856
2400
2512
2368
2496
688
2288
2784
2256
2768
2128
1936
1792
1328
1424
2704
2240
2960
1808
1040
1232
752
2512
3936
4817
3152
1104
1584
1632
4849
3760
2240
1360
2096
2352
2496
1600
3296
1920
896
912
2080
6801
1536
2304
3824
2320
480
1680
8658
2864
1376
1280
2576
1088
1664
1536
1552
2992
1552
2992
2928
3216
6145
3232
1744
2832
1504
2528
2112
1744
2272
2736
1104
1712
2272
1504
1840
2432
1376
2736
2192
2000
2848
3680
2528
2368
2848
1408
576
4305
4817
608
864
784
1408
4289
3216
3168
2016
2848
3632
2896
3216
2080
2608
2464
2688
2176
832
784
368
3792
4625
3792
3040
1744
3200
3568
2064
2496
1232
928
1584
3296
1792
1056
2128
3568
1936
3136
1824
560
3200
4193
3392
1248
816
2624
2096
3872
2704
3824
2496
3152
1408
4865
4097
1872
864
1792
1344
2128
2400
2304
2304
2576
2656
2560
1616
1280
3872
2528
1920
864
2832
1744
2976
1008
2368
1792
880
1632
2880
6625
2560
496
1664
3216
12098
6513
2848
1184
1152
2608
1664
784
1120
992
3792
2528
1328
1856
4097
3232
256
1920
5153
4609
2128
1872
2128
1616
2256
2480
2080
1616
1728
1776
1920
1312
1328
3248
2864
3296
1616
2320
4513
2896
2592
1264
912
3072
928
1680
896
4577
2960
3312
5505
2192
1664
928
720
608
784
4385
5345
4064
416
1312
2224
2608
1152
2064
3632
4113
1152
1936
3600
1712
1360
1888
3296
2752
2256
1712
1568
4625
4016
1712
2624
1856
512
3072
2704
2112
304
1888
2144
2256
2208
2464
1856
2144
3056
2560
2752
2592
3792
2064
1680
1920
3456
3456
2256
2112
1168
560
912
256
2560
3760
2304
2432
3664
4305
2896
1888
3104
1792
432
2672
4032
6961
1488
2720
2848
4048
4353
4449
3920
832
1664
2336
1312
3872
3360
1360
1952
1168
2064
1568
2336
2176
1056
800
704
2736
2736
2000
2432
3104
2048
3616
1424
2528
3296
3408
1232
4385
3104
1312
1472
2064
2576
2432
4305
1600
512
688
3168
4193
2640
3392
1152
2080
1056
1424
2992
4000
2768
2272
1840
2176
1888
1792
1088
1872
1536
1440
3344
3168
1088
1856
2864
3552
2352
1440
2128
2048
3376
2064
832
656
1808
3360
4161
4016
1360
944
1440
5313
3104
3904
3264
3344
1424
1200
1376
1312
6449
2208
2016
2048
2096
1824
1824
1680
2496
1840
1520
3120
2336
2352
3520
2624
3728
1392
2640
1360
976
2512
2304
1056
784
1536
864
3552
1152
6305
4064
2240
5697
3600
544
528
1888
2512
1552
1936
2000
1680
3824
2224
1984
3872
2992
3872
1440
1872
1296
816
1488
1744
1168
1824
3424
3264
2640
3152
2048
560
512
864
12483
6225
2848
2560
1952
2192
2144
1856
208
1248
2272
1728
2128
2464
1456
3040
2784
3408
1408
1408
3776
4449
992
2880
2112
1760
1312
2480
4177
2432
2000
3392
1840
816
1568
2080
2400
976
560
800
3568
1216
384
2576
2256
1920
2592
3504
3280
3584
2608
8834
1504
2624
2192
1504
464
688
1024
2160
3360
5889
2912
2688
5601
2640
800
1152
1072
1296
2976
1824
6561
7089
3152
4321
5425
2384
2720
3136
2048
1632
2016
864
1696
4369
1872
3712
2272
4417
1632
784
976
2128
1440
3792
6065
4833
4993
3984
2000
1216
4993
4401
3104
5473
5217
4881
6241
3520
3984
2080
2208
1472
3136
2064
2128
4353
6225
3584
2592
3024
2624
2208
1696
2176
3120
3344
2336
2416
2176
2464
1664
2192
3936
2944
3792
3728
3392
3168
2048
1840
2800
1840
2128
1216
1984
2304
2112
2112
2016
2128
2000
3088
4273
2128
3584
4097
3584
2720
2896
3120
3008
2864
3312
1968
1856
1824
1792
2064
1744
2016
2768
2000
2000
3024
2128
1536
2896
1664
4225
3616
2400
3856
2176
2176
608
2336
2128
2096
2704
3280
2304
1920
5073
2256
1680
2272
1968
3360
4337
5777
6625
2912
1888
3584
2096
2400
2352
1536
1600
1168
1840
1792
1808
3008
1120
3040
2608
2768
3168
5281
912
1712
2128
1808
1568
2656
1808
1552
2832
1088
5121
1632
1312
640
720
2944
6673
4945
1424
2512
4753
2064
1344
2704
5025
3120
800
2640
5137
3264
2080
6785
1920
2560
1680
3552
3216
720
3536
3744
6081
1616
2256
2016
2400
4193
5441
2560
1216
3200
4032
2112
480
2736
5169
2000
4225
10594
4961
912
2208
1024
3280
3408
4561
5889
2528
1488
1856
5729
6801
3136
2576
1600
3536
4385
2848
208
1424
1696
5841
480
5409
3024
1248
656
992
1408
1120
496
1040
4801
10546
3520
3664
3744
2896
1552
1168
1296
4080
3648
496
4113
2784
2736
2320
864
2928
5553
7889
2528
4145
3840
2400
1216
2880
3808
1824
3264
1440
3376
5505
976
1744
1888
4833
5825
2448
2096
2976
1888
2112
9154
2544
2144
704
3744
5377
3744
6817
2768
1696
1344
2400
3040
992
8113
14467
12739
4097
656
5025
2336
4177
3360
3104
6417
5793
1696
5345
5729
3408
1520
1088
2080
560
576
2768
1376
2448
2080
4385
4497
5569
4961
4689
2848
2752
3232
4353
3536
2208
3120
3024
5201
5217
2672
2592
3216
1840
1584
1808
1952
3648
688
2080
5665
5713
2832
384
1488
5137
6465
3312
4673
8706
6753
5457
13411
4145
5073
1440
528
1248
7057
4241
5217
3712
1888
1760
2016
2832
3280
3408
3152
1472
1952
1104
480
816
960
4401
3616
4289
2352
1728
1936
848
2992
7809
3216
528
2272
2768
432
784
2400
7761
3984
2624
3968
1360
2048
3408
1632
4753
2128
3664
3216
1248
1280
768
1344
8161
9314
960
848
3152
4401
2912
816
1296
624
1744
2816
640
1072
1232
432
4016
16131
1600
8129
10834
3232
1248
1360
1792
1712
2064
6193
6225
5009
464
6081
4625
2912
3392
4913
5777
6289
1088
1936
1200
1600
2352
1184
2080
1680
688
14931
9890
6753
3568
8145
11714
3280
3104
3568
1792
1472
2336
6881
2720
720
4289
1344
1200
720
2752
14339
2736
3088
2368
608
3536
5793
688
1424
9746
7697
8530
4481
7601
2464
1472
2304
2896
5905
1744
8994
4545
3824
2448
7105
1376
4705
2416
2512
8210
9170
5713
3008
3872
12851
9170
4593
240
13075
4929
1424
3248
2832
3536
3360
4016
1424
576
832
640
5025
3296
1264
8177
400
8450
6449
1488
8033
11586
10114
3488
4561
2048
13411
416
928
1296
5377
6001
6081
2000
1040
1040
1632
1808
7089
2464
8754
7297
3824
8129
4433
7297
5793
5393
7585
5601
1120
1504
1472
1680
1696
2880
1664
3376
2912
5281
3840
464
2320
1504
1984
2240
3088
2240
3120
3872
1840
3648
624
6161
4353
2512
704
1088
4129
8177
6049
5745
6289
7073
2768
1568
944
2720
2048
1456
976
3216
4097
528
7281
5361
1344
1856
6785
11570
9698
11330
4753
3536
1344
18980
28230
11410
2560
4048
1552
8113
12803
10018
4369
3760
13267
10690
12258
8738
9474
2576
2768
3744
6449
7617
12771
10322
4865
2320
3344
3536
2528
2448
1824
5201
7345
11234
2160
3008
2256
6865
3328
4801
6689
3696
7521
2480
2400
4289
3536
2304
3088
4000
2352
3632
3024
2768
2512
8274
7873
6081
13747
5921
8258
14067
4449
4289
3936
6929
13235
11442
9218
2864
1536
7697
9106
3280
2496
5729
9890
2784
3744
2736
7073
12531
2464
5089
3296
6625
7729
7185
9714
6433
1904
2464
1984
4145
3664
5793
2736
2688
5297
3920
3936
4145
4305
1600
4064
7073
2128
2496
3344
2096
2576
3120
5057
15635
15683
5729
7297
1984
1424
7873
1584
13603
22341
13635
6449
3664
25030
11746
5521
14531
10034
9138
14227
7137
7377
34664
20212
2752
464
6721
3520
4993
1600
1104
3280
2576
3280
976
1696
2368
864
1808
4481
3584
14291
14899
6561
7985
17892
8770
12771
7441
8530
3888
5793
9218
4113
864
1984
3392
3664
6209
7297
7345
6833
576
992
896
5393
3120
4689
1600
15411
3888
3072
11090
4257
4241
3488
6401
784
3248
5809
1216
1008
2400
5361
5553
656
1536
3136
1824
8418
512
4080
1440
3392
4801
3328
8722
13091
7745
1920
4609
4257
6689
2912
3152
1216
3872
5969
11586
1424
5201
2128
13139
1664
2192
1248
9314
14675
4369
3168
9522
3408
7617
6193
3744
1168
2192
4769
320
1056
1968
3200
10754
2368
7217
21205
14915
8466
11634
2864
9106
21461
17092
20292
16996
20276
1568
3168
896
3264
1344
2496
3392
416
6097
19012
17684
1568
6273
5729
4561
3904
752
1680
2432
5457
1792
16179
22293
5521
5137
6305
6705
5985
400
3712
768
4945
18100
18116
11266
2320
8033
9314
6449
1984
5809
2304
2448
1472
1760
5889
6737
9970
15587
848
10306
16772
8210
2816
2528
17316
13235
11986
2528
15651
19892
18484
14003
15491
12707
15443
6673
4385
4161
12002
7505
10642
9154
2288
11650
12819
4353
2512
9874
11874
2912
5329
5281
4945
7505
2912
5777
6977
6945
1296
3632
6353
13763
15683
10882
1584
2528
10706
12643
2912
4161
9874
6033
4929
5537
7441
3072
1200
4032
1600
3744
1552
1424
11586
1808
20517
2000
3120
9874
5569
8658
16291
704
944
1664
1568
8322
848
4481
5761
4353
2608
5457
1584
5745
2192
5409
7537
2128
848
4401
5521
896
1776
18580
18068
13123
1552
6593
1168
12931
38217
11858
8145
6929
31063
19332
19284
18836
11490
4865
3472
992
3856
14147
2976
2576
6337
5713
4753
1088
1184
1424
1408
784
6305
1904
1328
5265
3920
1792
2528
5569
9682
3776
400
12291
21669
7105
4641
12531
2064
4609
15955
15363
1488
3360
5249
2160
2288
10834
848
2192
4961
2320
2368
1968
6081
3280
5361
416
3536
15875
3904
1984
13459
15747
1280
1808
992
3456
2048
2368
3728
3808
4353
960
1456
16420
18132
9634
1600
7633
12947
7473
7633
8498
7969
2592
2896
2384
7569
4945
2384
1248
3040
1232
2640
8674
6225
10450
16179
3568
1632
3088
1072
2000
1072
7537
4385
5281
5041
1360
15507
2560
5489
8706
1232
5329
1856
6497
1856
11906
14467
10578
1872
4097
10418
13587
2192
4945
5281
13139
15923
11538
1520
4032
4113
6481
1536
4625
4417
704
9794
4080
15283
8161
1152
2560
2336
4113
4113
1040
2432
1856
7393
12034
1744
7441
11074
7585
5601
4032
14147
6737
3760
10578
1744
2000
2800
1712
8161
1328
8866
3344
1680
4753
13347
15827
1088
7441
2560
1456
1856
4225
1424
7217
1680
1584
2128
10130
16003
16532
13987
8161
5409
4881
1184
3280
1088
5329
2704
1888
3888
2208
2048
688
2352
3296
4705
3936
7889
7825
4193
3488
4961
2304
3568
656
1488
6065
2832
7905
1536
6753
6465
1088
400
4513
1824
10722
2480
15779
5809
5809
1408
4129
2112
3328
2432
1616
1424
3600
12611
13923
2320
22245
16516
9154
12643
13315
12258
2128
1296
2752
2704
9410
4865
2864
2096
5345
5041
2736
1552
5201
5185
4225
1168
4257
4241
480
2640
10258
5185
4449
17188
5169
1344
2864
4753
2912
10770
2704
3984
1824
5809
14579
7761
912
2352
4129
2848
3168
896
7649
992
6561
4289
8322
2272
1024
6081
1232
688
13859
6209
912
9058
17636
8898
1232
8001
6433
2144
1200
672
4497
3168
4369
6513
3104
15011
13027
2560
608
4641
3376
2352
3664
5825
7985
1472
3232
1104
848
3072
1888
7073
8962
9346
9426
2576
10546
2880
17876
21989
12483
5585
4881
928
3008
1376
512
6705
18116
14803
3872
9026
9090
12739
15491
4993
2880
5121
1488
6017
1856
1312
8177
2144
2736
9666
2816
10738
8274
1024
976
1840
1040
5505
10898
928
2480
2128
4289
864
1664
656
11602
8962
2240
5121
4833
3968
4113
1072
3216
3120
2160
3600
464
5313
5537
1296
6961
1840
720
2144
11058
11506
2192
19412
9746
2592
14531
3328
7057
22693
16820
7329
6033
1088
5537
16420
2048
2480
7409
15619
4593
5889
4801
16676
4305
1024
16131
14243
8658
1216
2528
5713
12242
3136
3744
16804
4657
10386
4337
15971
10658
1328
10898
9890
4417
1344
928
1696
5441
1280
3136
2048
4161
9506
3920
1376
5521
1952
5121
8722
6833
3264
3520
13075
5905
2864
4929
1568
1232
8498
5393
2256
896
2352
4753
4577
4048
1744
1440
2592
1280
688
2960
6225
8242
1328
3232
6593
4801
2816
3088
3888
3856
2176
2816
2592
1936
5937
8754
3872
3472
3264
5025
2832
7585
5073
2608
3152
5889
8129
16644
27990
19172
6369
5713
3984
4609
5889
3712
3456
3392
3584
2480
4241
1632
11010
12387
9554
12355
17476
4913
3312
11346
17092
2816
4897
4129
2048
2096
3584
7969
11442
15187
8033
5713
3328
3376
1248
2320
4289
3744
2064
2608
9346
3200
4321
2272
3392
1152
1696
3120
1760
3360
4289
2560
4209
4129
2080
1856
2000
4993
3968
2880
3056
2496
4513
2192
6113
2736
3440
5761
4161
4513
2944
5329
3776
2480
1728
5713
11650
9314
2448
4417
3552
8194
9986
3248
3552
6289
6113
3728
5761
7585
17156
8722
11282
6881
7489
19892
26086
17044
13875
16980
13075
1184
2304
544
2144
1184
1584
1728
8177
3632
848
1712
3216
8274
4529
1712
960
4241
3072
3968
2176
5985
4481
12242
2064
2976
3376
4097
16099
2496
2960
3472
13123
14099
5057
1584
2592
3488
3488
2224
2608
2192
4785
4641
1520
1072
1056
5201
6305
10322
15779
3024
22997
18484
16083
7089
4529
5601
1232
2512
4561
2176
2624
4737
3536
3376
2032
2640
2176
2288
7441
1520
7025
5345
1392
1456
3776
12018
8514
5601
3712
8978
5537
2720
4721
4897
5441
4817
2320
3488
3568
10034
2400
1376
2992
3680
7057
5937
2736
1232
7121
3408
6657
2352
2080
7569
9922
928
4753
10546
4161
2208
8498
2400
5441
1184
1824
3088
2096
9986
9922
4705
4097
3360
1584
464
14755
6865
2560
3664
4785
2192
2512
6113
5713
2272
4801
2304
1936
3856
7377
4064
3712
3744
3008
8017
5409
2000
6593
10002
2496
5041
3072
9602
1616
4529
1168
1408
8033
10850
6577
3840
1104
2176
2704
1648
5329
19620
4433
2304
1648
5345
944
1488
1616
1296
2704
11682
8834
3536
2320
1808
5937
4016
3072
704
8290
8658
11874
7105
2608
4257
2704
5105
1984
2368
9026
4897
14675
5057
4785
1568
1424
4897
1392
2256
4417
3472
2768
4865
1184
3328
1664
2176
1696
6321
12098
5009
9458
6161
1856
1824
1536
992
1488
6705
6241
1600
1088
5073
3840
12226
960
5921
11794
3344
6145
3968
2800
1968
976
1376
2352
4449
3136
5537
16612
2064
2576
2816
1072
3536
5777
5825
656
8370
8578
14051
13347
3280
7649
7489
6321
3488
9442
3344
1232
2240
5105
1552
1696
1280
6289
6017
13155
5105
1248
7249
2912
17236
14003
1600
3120
18484
9394
12323
2080
2256
3600
1744
7345
10178
5857
1568
1840
5409
12595
10322
10930
19492
5585
3296
1536
2560
3136
1584
1968
1840
2064
1872
928
2128
2016
2080
4048
3408
5569
6097
8177
4305
7345
4785
3424
2896
8001
4785
1888
768
2304
5809
1312
1456
12082
2944
2432
6977
11874
11106
7105
11682
12066
736
11154
1728
1104
1424
1728
5441
7729
1440
5025
12226
13475
5297
1408
1232
10338
8290
4993
2640
2976
8226
5313
6241
1440
6241
7185
4113
14915
1040
20917
18052
3056
13971
7169
10114
16516
8418
1296
1168
1568
3232
576
16051
10818
2704
2016
3088
7249
14899
12563
4481
7937
5425
8177
1584
1456
4673
1296
6753
672
1968
7761
5761
3056
2640
2048
2480
1104
2688
3728
5665
1872
6817
10722
11666
5585
1424
9954
2768
8418
10450
21861
14275
2432
1760
1920
1616
2720
7969
2240
6737
1568
1552
2736
5201
3072
2000
2528
11826
10114
4016
2512
2960
14099
3712
6033
7137
10034
8882
4785
7489
4673
10274
5153
1056
1616
4032
6177
1344
1296
3072
5169
3856
2432
1408
800
1968
7841
3840
2752
2176
10194
4080
1520
2784
1056
16291
3680
15891
13523
8898
4369
2432
2736
4385
4913
2304
2432
4241
14931
10578
4577
16580
22981
2352
1616
5521
2496
3968
1504
3536
8194
4113
944
8210
1040
11730
2704
1952
6529
1872
1680
4753
7825
9810
5201
8113
5265
6113
1168
10818
8177
8962
10802
2176
8161
3184
14163
20148
10146
2848
848
6641
13619
3040
1200
2624
1488
1312
2352
4241
9986
26838
4000
3920
1936
8177
14531
2848
5569
2576
6465
5985
2496
4145
6705
3312
944
6625
8578
18180
18068
4769
2480
2224
9154
10050
11026
15683
9186
10786
16131
2848
2368
12771
24501
8145
2224
2768
4753
7649
11618
7329
4385
10434
2976
3136
8994
9042
2624
1056
1088
2736
7441
7169
3808
3648
5057
11426
5857
1376
7505
2992
2224
5201
2368
3168
2496
3520
2784
3904
10290
10130
1536
2752
4113
5569
4353
4225
5425
6353
1376
5537
12851
6865
3536
3600
10450
1184
11090
13075
17636
8322
4369
1552
1264
4753
8898
1472
7809
3808
1312
3808
10978
1792
2016
2304
7329
14915
1568
4289
1696
4497
6977
4257
4945
5793
5409
1872
1312
10834
8866
7697
5025
2048
9474
2128
12371
14723
9346
11458
8097
6561
12210
1696
2816
2928
5857
2352
976
12723
10946
1552
1328
3376
6705
7633
2336
10898
5169
6641
5249
3712
5057
6353
7281
1296
2256
1808
1040
1744
2432
4449
2608
1328
2096
4097
7153
10402
7969
7745
832
5585
11106
3984
5729
1376
5681
1776
3728
2368
5825
13043
11234
976
2576
4689
5281
1120
4545
1856
2784
2080
12979
2576
6833
2176
2112
2320
1824
2064
7441
2448
6449
1840
2976
6321
6225
13683
14355
9874
6833
1120
6609
1536
1424
3600
2256
1312
944
2656
8113
9010
11074
4273
4177
3104
6449
12274
9698
4705
4673
5313
2512
7377
816
1456
3728
1984
4177
1984
3888
6673
5361
4561
5969
4481
3120
2576
4273
5201
2736
9026
16420
13219
8802
2432
2688
4577
2560
1616
3264
5297
1936
9186
7361
7185
3984
10786
2528
14291
16804
6961
2896
2432
4833
4064
2816
4993
8338
2336
1824
1760
2864
4113
8642
9650
7569
2368
3472
3232
2896
2176
4737
5905
8402
12194
11586
3504
4753
2768
1888
4785
7649
5585
2128
3520
2352
4113
1872
1840
7617
6417
8177
7905
6337
2464
4145
4497
5841
2112
2240
4273
3408
2400
2368
11266
3968
5169
5425
6161
4881
3648
2880
3648
3424
4625
7473
8882
4064
3488
3664
1376
3584
4289
3888
14131
8338
4369
3472
9314
10274
2784
4145
9746
3104
1856
1376
5457
1808
6561
4385
14467
3856
6017
5681
3632
2496
3936
3184
1968
12419
11394
6721
2576
5313
2688
2256
6401
2960
11314
2400
7553
13843
9346
5601
1856
1952
1568
4657
2496
6209
2976
1216
1616
1936
2048
3024
1600
3728
7121
9410
1664
9794
6977
1856
1360
9314
4609
3552
1168
6017
3136
3872
4497
4929
1024
11570
6065
6193
784
1504
1872
1824
4064
7297
3632
1552
3952
3728
10754
2784
2576
9090
12931
2384
12899
17220
18788
6945
10882
7953
2912
1984
1856
1696
2112
2880
3936
3456
3520
12387
4257
1808
3664
6705
10338
13091
10130
8017
10978
8866
5137
4657
3616
4945
2512
1888
4881
5377
1568
2688
2656
1168
2992
1792
1600
2448
4753
1024
1200
1424
1424
13347
7169
1632
2768
2240
3248
864
3664
1376
6449
5889
3792
2320
2192
1248
7729
16868
14259
11682
1488
1760
9938
14531
12258
15235
9794
3008
1408
2112
6625
1424
3200
3216
4113
3264
5281
8177
5697
1536
3008
6033
7073
2064
2752
3968
3840
3776
9874
8033
2464
2768
5857
1328
2096
2176
12307
18708
20661
12419
3968
2848
2480
3744
5969
9954
7761
4865
7169
5761
2432
4689
2992
1952
3568
12451
3488
1760
2208
3056
1424
1344
1088
11490
2208
2320
11746
7137
7489
2112
2688
3648
1440
3648
3232
5249
3856
7153
10674
7777
6577
4673
2224
1696
1728
2416
1376
10130
6849
13699
8722
2464
2272
1616
2432
1168
2320
3264
1488
1280
6049
4449
12050
4321
2512
2816
2640
5617
2304
3920
9186
10146
3360
6721
14115
9922
4881
1936
14723
12739
12499
7233
8210
2304
2848
4273
1552
15603
8097
2064
5313
5729
5521
3776
4945
2976
1184
1696
6529
3776
2112
7121
10434
3296
7169
6401
1696
4241
1376
2736
2560
9058
6593
12947
24101
4481
7809
12082
15971
12755
4449
1744
1248
1536
4641
1744
15171
2352
2064
3680
6321
8322
2464
3920
2880
1696
5393
1744
1472
6865
3744
2528
9554
3776
1344
1456
10578
2832
18500
8978
10450
4080
2112
1216
3040
4257
6049
5265
6849
3680
3024
4689
13651
3648
1984
3888
10066
2048
2848
2528
5201
2096
4561
11538
3984
1504
5137
1920
15203
13235
15427
4705
1760
3648
1024
14099
10626
7265
3280
7809
2016
2880
1472
2144
3520
3280
7905
9634
13203
9346
3504
6433
7793
4513
5441
10242
5649
7377
8226
9634
4481
8145
2688
10658
6161
1968
1264
12307
3744
2752
1552
3264
10402
5697
3488
2016
1664
1216
2000
3424
1344
11554
3904
7297
6961
3408
6017
3120
2416
5249
7345
5185
3584
7585
3328
1568
2048
8177
5617
7953
5057
3840
1456
2000
2672
2560
15539
6977
2768
9682
8626
5809
6657
5841
5521
1280
12355
2096
1472
1952
2432
7825
7377
3584
3136
1536
1216
3840
6225
2992
5665
6289
6369
3488
4625
1376
1648
2000
7681
5489
1488
4897
10930
7777
5713
4257
3232
3616
2256
2704
2112
4129
6401
3840
4401
1776
2640
1664
2944
2064
5265
9282
13443
22037
17220
6689
9730
7313
3376
4993
13731
5393
2800
4849
11298
10114
5505
2816
3008
2656
3456
4032
1888
2176
6833
5521
2080
2640
4225
3648
400
1984
3488
3664
6545
6481
3808
5809
8802
8017
2784
3840
4625
4129
2528
9794
5761
5425
8450
3184
6033
5457
3792
3152
4881
2768
6753
13843
15155
14851
11666
10674
4241
4337
2288
2224
2736
5281
6417
2992
2800
2560
10098
14339
6897
9762
7265
4369
2608
5521
3248
4673
17748
16804
6961
3296
6097
3984
1664
3136
3200
2496
2272
2528
6305
2352
14627
15123
11170
3008
2064
8674
19348
18996
8177
7009
4353
2688
1344
1456
6881
6097
7633
4705
3760
5361
1456
1984
1680
2432
7713
3808
16035
2112
4161
4433
8161
13267
8882
7697
1728
10242
12066
2576
7041
24565
19492
14547
4016
1408
1680
4801
4273
2224
2224
13571
2112
2304
5169
1632
4529
1200
6945
3168
5777
5697
2640
3488
4353
4113
2496
1744
10050
11874
1888
1632
6433
1728
5985
1936
4241
1760
1488
4225
2256
5841
4305
5281
11762
2384
1472
1600
3360
7777
1616
6305
1536
2304
1440
6065
2736
2224
1536
2624
2656
3648
2752
1600
2608
6433
8177
2816
2000
3488
3360
3136
2128
1920
6945
5169
4545
3008
1712
1632
10994
9570
15331
4032
11026
10898
10658
20533
9058
14227
4032
5201
6385
2000
3360
2848
4161
2992
1472
8177
8546
2064
2816
2784
1696
4113
2880
5761
3984
2352
1312
2064
3536
3248
5473
2560
3600
3728
2624
1232
3824
1376
3280
2144
1808
2688
1776
2784
2768
1200
2608
1488
1984
4865
6609
14211
13187
2112
2576
1648
11106
15171
12483
18068
6273
2016
3072
1280
2096
5281
4689
9442
5345
11362
12739
2576
4593
6833
5313
2384
6529
14851
7137
5425
9362
2064
4032
14899
12274
7009
2304
2368
1792
6577
4801
3632
2352
2608
4032
2448
8498
3920
4321
6785
3120
1632
1520
1840
2896
3920
1728
5121
2880
4577
3552
1696
2272
6577
3392
5121
4801
5985
7361
2608
3872
9554
14403
11698
2480
1424
5665
6801
7329
6033
2864
2240
7345
8370
5841
1600
1664
2368
9346
6353
5521
4289
15363
5073
1632
6145
7633
1584
16564
27910
2512
4993
20821
12931
5393
8274
2464
1344
2544
2592
5169
1920
4257
2336
2352
2368
3376
7361
6689
26118
12995
2400
5041
16724
10962
24165
22933
11682
4257
5265
6049
2368
8129
5649
5121
1920
1440
1424
3424
3024
2736
2480
3552
2736
1728
1840
3248
4945
2944
1376
3600
1488
6993
12050
1600
2640
2448
3168
3248
2768
1520
7841
2000
2688
3216
1744
4993
9826
7233
18180
11490
5265
8370
1696
5329
5921
5729
5169
3104
2848
4433
9618
14563
3152
3472
2352
6577
2000
1584
5281
7857
16532
8177
2992
2192
5937
13635
12851
3552
2592
2336
16323
22325
14979
7073
3296
2736
2384
2176
3088
2912
3248
1568
3744
2320
5825
13539
1600
1616
1680
3152
3120
2560
4977
15427
11666
1824
5009
4865
4689
2224
9026
8514
4385
3776
1712
3440
3600
2688
2336
2304
5505
6769
1328
13363
2144
2560
10562
2400
4545
1616
6273
2128
8450
4401
6593
11346
6705
2016
2016
7233
14899
8530
3040
5569
3808
2144
13027
3344
4913
6929
3680
4080
2352
4753
5009
4321
4769
10210
2704
14115
2128
8658
1680
4257
1616
1680
1840
3088
7265
1488
10082
19188
19524
15411
2544
15123
21269
25894
25110
4048
1952
1488
10882
4321
3216
8786
5393
9202
1472
3504
2320
3888
7297
13107
2208
2368
2336
4113
2464
1968
3360
2176
5233
3264
1872
3808
3632
5505
4625
2240
3872
2768
2352
7057
3792
3168
1968
2944
3360
2112
7585
9138
4000
3088
8210
17028
9618
16420
6289
3136
2272
10530
6273
5985
5217
13827
11138
1808
1808
1568
6065
18020
15091
2128
2528
3920
6257
6993
1744
4481
3728
4513
2080
1488
1152
3648
4048
1488
1936
2000
1664
2048
8770
12563
4385
9538
8882
6353
2048
10114
2144
11266
16964
14611
3840
1280
7169
1536
6529
2352
3744
3776
5937
3328
3168
2272
1568
16996
6625
9346
1664
1872
4705
8962
9922
15651
2976
4609
2160
3264
4433
6785
7745
2080
5921
1920
3664
2176
4497
4641
6977
3696
2992
2352
3216
7585
7457
1712
2816
3504
9554
4513
1760
1472
1504
2896
2528
1632
2704
1760
2896
8210
9234
4641
2736
7969
19972
15619
6465
12627
7777
8081
6497
3680
2688
7121
3024
2256
1344
10818
8738
2224
2112
2176
7553
2960
16259
3472
2752
2688
1936
9042
5153
2896
1936
6465
9746
1840
8177
5137
30727
20132
4769
2272
4497
26982
13363
14947
15523
5025
3104
1712
8177
8994
7617
8129
2800
6737
3792
2912
7361
5169
6977
7745
8370
4993
1760
2512
2240
1520
7121
2928
2560
14883
7137
2784
6529
1520
4577
4769
14259
14403
12723
3008
4064
4721
8177
11442
6209
6593
1856
5217
7633
2752
2432
2912
3120
1472
7137
3216
5713
2704
2544
3632
1632
4145
4161
3600
2832
11746
6801
2688
4305
4961
7713
7185
13091
14867
2144
13011
16900
20436
10562
1952
5377
15107
7393
20629
10242
6881
2640
2992
3904
9730
4064
2320
2096
2688
2336
3232
2688
2288
1856
1344
3488
1360
4225
2224
3392
5425
1536
1232
8001
3648
1328
2496
7665
7089
8914
7201
1488
5553
2048
3904
3856
1808
2704
2896
2624
4721
2912
3072
9298
9618
16708
16420
11554
2160
5601
4433
4497
6593
7233
10674
3536
4705
11746
9026
6049
2608
2368
3920
3168
2544
2304
4785
5169
5137
10066
6561
1968
2176
2576
1856
2256
3424
2000
11970
20068
19508
8177
2160
2336
2752
17764
25366
13635
8177
5905
7857
4337
2432
1824
2400
2976
1856
2848
3600
3056
5249
11730
12050
2512
4305
2656
2368
2480
4000
2704
2576
2960
4064
3040
3792
4577
2432
2192
2448
2832
5521
3856
2592
2688
7905
7873
6065
5025
4369
2528
1920
3024
2576
5505
15987
5025
3088
6977
10130
4097
3136
2480
1872
2272
8386
4161
15907
10834
6833
4513
2592
2976
1216
1760
6145
3984
2432
5153
9186
3552
2608
2800
1728
2816
4161
7153
1984
2624
1840
4289
2176
5569
2176
3664
6305
3840
1920
1984
2272
28839
6065
6609
10274
5137
3824
3840
2320
8258
4289
3568
4689
2048
5153
2432
5409
5681
8434
4961
1536
7121
2912
3968
2624
12194
9730
13107
3504
13443
13043
17220
15907
1568
2624
1328
4321
3840
4417
3328
8177
3312
1568
2640
11554
6657
7201
8177
8226
10290
23269
11026
6177
1696
6737
8177
1760
1984
2016
1952
1920
5281
5585
2208
2064
13763
9426
11266
18660
7713
1856
14835
12226
17108
11506
9746
5521
7121
7345
3664
2864
1968
2720
4513
6913
9266
5073
5105
2608
5793
1888
4449
4385
7633
3632
2336
1872
4305
3328
3440
11986
6977
7105
3232
8177
6081
2096
18436
18244
7729
4113
2784
4129
13107
16147
13635
3792
5201
4497
1632
2736
2624
1840
4305
8610
1984
3504
2160
3872
9394
14467
4161
6865
3616
4064
2832
8450
7393
6737
2448
1632
7777
2080
3552
6369
6177
7169
2656
9106
3632
2576
5617
2112
3808
1808
1808
2128
2032
2480
3776
11314
2144
3520
4833
4753
3008
4785
8177
6113
2976
4433
3472
6481
10530
9218
3728
1936
6657
5793
9010
15059
11218
3232
1536
8642
11218
2304
4817
5185
5489
3200
4785
4641
5617
1456
1456
2304
3104
8882
4737
6017
2944
3024
1552
2320
1936
4657
1856
2976
6353
2128
1936
2224
2048
3200
3376
5201
3760
4401
3248
2720
2272
3328
1888
1984
1968
2208
3632
3408
1728
1872
2800
2688
3632
1904
1936
1680
3360
3552
3600
2112
6049
3216
2944
6449
1664
3232
1856
2448
2512
1856
3680
2048
2064
3008
1680
3584
1680
1760
4048
2560
1808
3808
2448
2288
2000
1840
1936
2096
1776
2288
2656
1808
1696
1456
1488
1824
1440
2112
1904
2832
2448
3472
2352
2960
1904
3136
3408
3504
9762
4385
3952
4817
3248
2080
2384
2352
2464
2880
2768
5953
4689
3120
2208
3472
2480
2368
2304
1824
6433
6657
2144
2048
1568
2736
3984
2608
1968
1856
1584
1952
1824
1600
1792
2048
1536
1920
3040
2208
1536
2256
1696
1840
2448
2640
1728
1696
3264
2176
1760
1984
2480
6961
2176
7361
6561
3600
6977
4113
2336
1872
1760
6865
2528
2112
5425
2704
4385
2080
1840
2576
2576
4993
2032
1600
1808
2208
6113
2192
5697
2400
2080
4481
3760
5233
2224
4625
1936
1872
1760
2560
1840
1776
2064
2832
2720
5505
3376
1776
1920
1712
2208
1952
2128
2048
2112
1616
3472
2448
3920
5329
4737
2432
4000
2112
1744
2048
1744
1888
1808
2512
2128
2336
2752
1504
1712
1600
2848
2368
1824
3680
1888
2688
3408
2240
2832
3584
2512
1872
2528
1920
3040
2128
1936
2048
2032
1712
1840
3104
2960
2016
1920
2096
2064
1872
3312
3024
5857
3632
2816
1776
1888
1616
1776
2064
5617
2720
1504
1728
4545
2080
3440
3008
2384
3024
2304
2320
1952
3024
3136
1856
1600
1888
2368
2352
1776
1920
1680
5585
5073
1888
5489
3360
1808
4353
1744
1792
1984
4048
2144
5681
5345
2128
1504
1808
1696
2336
2640
2752
2768
1440
2224
2432
4257
2992
2432
2432
2496
4737
4657
2672
2688
7457
2704
1840
2192
2832
1872
3072
2864
1872
1936
2528
1728
1856
1872
2384
2752
1728
2304
3216
1824
4449
2192
3008
2640
2240
2416
2304
2000
1936
1728
2384
2144
1568
2000
2112
2144
1664
2320
1872
1632
2672
2912
1488
3136
5169
7105
3888
1568
2432
3552
1776
1840
2240
1920
2208
5217
2720
2256
3808
1776
2256
2000
1920
2608
3200
1888
5857
7953
3728
7153
4193
3024
2016
2112
2224
1680
1872
1888
2256
1936
3680
2656
2912
1552
5313
2592
2096
1984
1936
1632
5889
4785
2592
1824
3232
2464
3360
2448
1984
2064
1920
2048
3072
2272
2976
2016
1568
2128
2368
3264
1856
2608
2000
2800
2672
9874
2480
1968
1568
2640
2112
2128
1584
2080
2064
3472
1888
2592
2560
2688
1920
1968
2064
4113
2096
1920
2000
3536
5121
3552
2560
5649
1680
1872
2128
1936
1984
2176
1792
1728
3088
3200
6353
3264
2048
1840
1824
1792
2480
2368
2080
1600
3744
5441
3088
2528
2528
1584
3280
1840
4433
2464
1664
2224
3072
3184
2096
2256
1984
2080
2592
2112
2624
2624
4657
2608
1872
2576
3840
2496
3168
3632
4433
4177
1872
2752
1888
1840
1872
4753
2848
1824
1488
1808
1632
2288
5985
2848
2704
1712
1952
2160
2432
1584
1856
1744
1824
1856
3360
1856
4673
1840
2496
3488
3408
3632
2624
2384
4897
2368
2240
2080
1808
4353
1984
4129
4449
2368
1744
2320
2368
3360
2320
2592
2384
2432
1760
2016
1968
3840
1888
3264
4449
6241
10658
4529
3120
6817
5089
2320
2304
2592
3136
6081
2480
2176
2192
2112
3280
2448
2496
3008
1792
2144
3200
2272
2512
1376
3120
2096
2064
2592
1968
2192
2496
2832
1952
2656
3360
2096
2736
2000
2272
2320
2368
2368
2832
2688
3152
5329
4305
2832
1728
2128
2336
2944
1920
2912
2720
2640
2768
2496
2608
5297
3024
2192
2048
2064
3328
4433
2608
4161
4321
2944
2544
5921
8530
896
1808
2960
7745
8065
2656
2000
2496
3232
2176
2512
3936
2464
2496
1808
2272
2208
2064
2432
2080
2352
1504
3008
2816
2608
1728
2288
3200
2656
2192
4048
2128
2576
2080
1792
3536
2800
2720
2912
3264
2048
5457
3968
3584
1792
1952
2304
2176
3744
3040
3344
8177
2224
6881
6017
5297
2912
4369
1808
1808
1584
1680
1808
1888
1888
2912
3088
1952
2112
1920
1968
1680
2688
1952
3216
2336
1872
2704
2144
1792
1920
2240
1712
3072
4705
3984
2064
2208
2256
1968
1968
2352
2000
6609
1616
3472
4945
3712
1808
2592
2496
2384
1712
1824
2912
1648
1776
2320
2128
1824
2016
2000
1600
1920
2624
5393
2256
1824
2112
2400
3072
7761
2048
1856
2576
1680
3024
2192
2304
2176
4145
7633
4481
1872
2192
2736
3520
2240
1888
1632
2128
2656
2064
2000
2272
2144
3568
1936
4417
2208
2064
2448
1840
1984
2272
4481
4561
2128
1616
2432
2240
2464
1792
1824
4097
2720
2880
5585
2128
3984
1744
3376
4401
1632
2352
1760
3552
1696
3104
2272
2800
1824
2320
2336
5633
3136
1456
2112
4785
1728
2448
2144
2784
2720
2112
1952
8450
3808
6433
2480
2752
1808
2400
4177
1792
2960
2592
1920
1744
1984
2112
2000
1520
3344
2048
1760
3136
5217
1872
2064
1952
2128
2064
1632
3280
5969
3040
6113
4849
3072
2368
2368
2256
3584
4609
1872
1632
3152
1248
3664
3488
1968
3200
3232
2176
1888
1744
2352
2496
5073
16099
6113
9826
5425
2000
6593
3472
2576
2192
2112
1776
1824
2112
1936
1760
2608
4529
1696
3408
2656
3840
1504
2000
2096
3008
5809
2272
2048
2240
3472
3280
2592
1568
3424
4737
2048
2848
5729
2336
2144
3744
3760
1824
2048
1760
1824
1696
2608
2432
2112
2048
2720
2128
3264
1824
4785
7441
8210
2848
1600
1584
2288
2064
1728
2064
2144
1936
7985
4016
3472
1776
2912
2880
2576
2448
1904
2608
2336
3008
2128
2720
6353
4193
3760
3728
4513
2976
2112
1968
1664
1808
2768
2576
1760
2720
1920
1712
2256
1968
2432
5121
3296
2240
2128
1952
3808
2304
1920
2304
1840
2000
1968
2608
4929
1664
3792
3152
2544
2624
2224
1664
2000
2832
1712
1632
2064
1872
2880
2064
2048
2112
1920
2592
1888
1968
2576
1888
2016
2416
3104
2048
2176
2304
2608
1840
2016
2016
2064
2096
2528
2640
7265
2096
1968
2320
1552
1616
1728
1776
2400
2368
2912
5297
3360
1488
2128
1712
1888
2656
2672
7713
8546
2384
14035
2736
2144
3728
1840
5025
2080
2288
2832
2688
2272
2224
2368
7249
1952
8161
3280
2048
1840
2880
1616
1600
1856
1968
2144
2272
1888
1568
2208
1904
1616
3168
1984
1984
2496
2128
1728
1888
2400
3456
1600
2496
2432
11058
3040
2976
1760
1616
2528
1744
2752
2080
5281
2112
2560
2640
2576
3536
2448
2096
2400
1920
2288
1840
5121
2464
1936
4305
2480
3216
1824
3328
2208
2176
2400
3328
7105
1680
1664
2224
2640
2256
1760
2336
2480
2560
2208
2096
1696
7425
19492
2256
17892
4273
2352
2880
3232
2448
2384
6625
4801
2592
2272
3120
1728
2576
4721
3840
2864
1920
2256
1984
2096
3168
3408
1744
2960
784
3520
1680
2048
2864
2720
3216
3264
3280
1888
2144
4241
1840
1904
2496
2400
1888
1872
2096
2976
2304
2592
4545
2176
2016
3136
2400
2000
3920
2048
1728
2144
2512
2912
2112
1600
3728
5313
1696
3760
2400
2272
4161
2704
2624
2528
2128
2000
1936
2000
2912
2560
2176
2368
2448
2400
3520
2336
3712
3392
1408
2592
1968
2512
3200
1952
2112
4417
3296
3104
2304
2352
1872
2256
1856
1616
2224
2144
2304
12355
7953
10738
2432
2576
1552
1664
3072
2128
2384
2096
2336
2112
2272
3024
1680
6401
1968
4865
3360
1696
3504
2576
4369
2032
4849
2224
1808
2704
2496
2688
2432
2368
2656
3792
2256
3648
3392
5665
2992
2880
1920
2240
2192
5137
2432
2576
3072
2128
2400
2720
2256
2000
2096
2192
2208
1712
2320
1920
2336
1696
3296
2576
1456
2320
1968
3568
1840
1792
1984
3344
1792
1616
3568
2640
2224
2112
1600
2112
4545
12162
1984
2304
8818
4145
2736
2544
1744
1584
1792
1968
1536
1664
1760
2128
2704
2320
2176
2000
1968
2000
9026
3280
7713
3632
3088
3984
2096
2784
3488
2336
2480
2112
2128
3248
1792
1728
2128
3024
2656
1824
2064
3456
2544
1696
1760
1456
2272
2752
3856
2512
1888
1984
1616
1616
1616
3232
1920
2000
1808
4000
5025
2560
5281
4129
2256
1936
2480
1888
2240
1696
2016
2112
2592
2208
2000
2000
3024
2208
2400
1984
2256
2464
2672
2464
2688
1888
2912
2272
2784
2432
2144
1360
1808
2112
2784
6785
1952
5265
2240
2256
3840
3120
3424
2912
1920
1824
2480
1808
2048
2272
1920
2080
2176
1952
1488
2080
2880
2304
1936
2160
2816
2960
2768
1600
1616
2720
1792
2832
3968
1728
1856
752
9826
5969
10082
3408
2688
2192
1664
1744
2112
1840
2224
2272
1984
1504
3648
2896
2064
2016
2528
1936
2352
4321
6481
2704
1760
2208
2224
2240
1680
1856
1856
1744
3248
2992
2096
2048
1920
2128
2096
1760
2112
1840
2752
2144
2288
1760
3968
2080
1712
2336
2496
2208
1584
2048
2048
4193
4673
2336
4129
3392
2592
2176
2256
1824
2064
1504
2752
1584
3376
2144
1856
2784
2064
1728
3008
2832
1712
2224
1712
1712
2384
2176
2704
1968
4545
3056
1952
1728
1952
2256
4000
2608
3088
1568
1872
2064
2896
1744
2448
2352
3712
2352
4305
3328
4353
2624
2816
2096
1760
2240
2688
6465
5553
3744
1728
1536
1440
2096
2080
2112
2096
2960
2576
10194
4497
4016
1824
2224
1680
2976
2816
3344
2016
2096
2448
2704
1600
2176
1616
2304
2080
2240
3200
2704
2608
2112
1728
2896
2128
1824
1952
2160
1920
2128
1840
1968
2384
1536
2496
2432
2096
2784
1984
1824
1840
1968
1536
7777
4849
4993
8177
2832
1360
1744
2016
3168
2000
2176
4113
2544
3248
2576
3328
2080
2320
2176
1808
2176
2384
2240
1520
1760
2016
2352
2000
2608
2464
4545
3072
1744
2080
2144
3664
4273
12114
3376
2336
3536
2096
3088
1872
2576
1616
2368
2272
2384
1968
1552
2112
1920
2512
2240
1744
1968
1712
2464
2352
1552
1584
1664
2080
1744
2832
2800
4513
3072
2368
1776
2128
1680
4273
9362
2560
6097
2288
1856
1968
2304
1744
2192
2144
3104
2768
1952
2864
2304
2464
1984
1952
2368
2368
2432
1584
2048
1888
2176
2048
1824
2272
1600
1856
2624
1760
2320
2720
3184
2144
4048
3472
2080
4064
2560
3888
2832
1664
2096
2112
2368
2176
2208
2064
2784
2256
2048
2128
2144
2656
2528
2176
2624
2768
2224
2112
2736
1968
4545
7553
5585
5697
5377
2528
1920
2688
6449
6561
3792
2000
2112
1696
1872
2496
2144
2608
3424
1904
1952
2256
2144
2080
1920
2304
2160
1824
1824
2000
2064
1824
2064
2112
2208
1712
1456
4225
2352
2912
2096
3024
2832
2736
3456
1712
1632
1552
2240
2608
1712
1728
2048
4497
3376
2848
4353
2384
4129
4577
2336
2224
1664
1984
2128
1696
1664
2080
1680
1712
2256
1952
1664
1728
2144
2176
5169
1744
2048
2192
2064
2704
2048
2176
1968
2256
1840
3024
3504
3584
2976
4417
4865
3712
2384
1872
1984
2080
2944
2576
2208
2240
2192
2048
2720
2080
2336
2768
2560
2096
2848
2208
2672
2048
2336
2144
2272
2064
2400
2208
2864
2384
1968
2048
2080
1600
2560
1744
1856
1872
1712
2640
1808
2272
2352
2464
2192
2096
2320
2112
1840
2448
2896
2080
1808
2272
5889
6161
1632
3536
4000
2416
1856
1808
2384
2336
3488
2272
2080
1664
4913
1984
4753
4113
2960
2480
3072
3552
2704
3600
3472
3088
2192
2384
2000
3680
3072
3088
2208
1920
2368
2144
2176
1824
2144
2512
2192
1888
1616
2752
1712
1920
2208
2176
2240
1840
1952
2240
2096
2192
3712
1984
2288
1776
2048
2064
1984
1712
2576
1984
2080
2352
3008
2768
2816
3104
2240
2400
1792
2128
2304
2352
1840
1616
2480
1920
2480
3536
2992
2176
4801
5345
2336
7681
2400
2528
2960
2848
2384
2224
1632
1680
1712
1872
2496
2944
2080
1792
2672
2368
2624
2448
4961
1936
2576
2688
2272
2368
2096
1984
2352
1696
2192
1504
2048
1888
2128
2080
1856
10066
3712
1840
2176
6017
3264
2320
2224
1872
2960
1968
2256
2528
2592
3152
7505
4209
2880
2608
2144
1936
2192
2736
2320
1968
4097
1856
2016
1632
2432
4385
2816
2144
2544
2272
1936
2608
3248
3728
4241
2256
2064
2256
1664
2304
1968
2176
2880
2064
1872
2736
1920
2016
2528
2384
3280
3568
2208
2992
2384
2144
2320
1728
2256
3200
1808
2112
2096
1920
2192
1808
1984
2528
2192
2192
2880
2176
2784
1872
2272
2176
1440
2224
2320
2272
1600
2992
4513
3776
3168
2320
2304
2816
2592
2336
2400
2496
1824
2352
2176
2464
2288
2320
3616
1760
2752
2176
2432
2080
2304
2336
3104
1808
2496
2192
2480
2464
1936
2016
6145
4353
4609
3264
2880
2224
2048
3200
3744
2128
1936
1680
2080
1648
2608
1568
2272
2768
1760
2592
1872
2624
2128
1920
2704
1408
3008
1824
2112
1952
2512
1824
3152
4673
2208
1776
2464
3744
3216
1632
5969
3328
2304
2256
2256
3456
2800
2768
1680
1984
1872
3216
2752
1808
1792
2496
1808
2400
2384
2080
1728
2384
1872
3776
2688
1984
3664
2528
2208
2112
2336
2080
2944
3120
3536
1792
2224
2192
2048
2736
1920
1696
1760
2016
1808
2528
1888
1632
8962
4177
2032
5393
2560
1952
1728
2272
1616
1952
2192
1872
2080
2016
2176
2240
1808
1808
3008
2496
2448
1696
2112
1776
1808
1952
2464
2544
2736
2432
2176
2176
1712
1680
1824
2128
1744
1584
1824
1680
1936
2448
1936
3008
7825
4609
5409
4337
2368
2272
2144
1856
2192
2304
1888
2256
1776
1760
2848
1808
2384
1696
1792
2256
1680
1664
1824
1936
2128
3856
2336
2992
1808
2240
3648
3600
3504
2112
2304
1952
3392
2528
1984
2064
1712
2752
2048
7713
3312
2576
5265
4657
2752
6785
2880
3680
2128
1920
1920
2240
1840
2960
2624
1936
2000
1936
1696
1856
2064
2464
2576
2144
2576
3504
2064
3088
2800
2912
4048
3632
2048
1936
2944
8498
6849
3024
1440
1696
1664
1824
1856
1616
2128
2160
2480
2752
2080
2336
2784
2704
2064
3360
7217
2720
5665
4369
1888
1792
1968
2224
1792
2176
6529
2848
2768
1856
2736
2272
2176
3920
3632
4401
3392
3536
3792
4577
2128
1696
2512
2896
1728
2704
3344
2832
2112
1856
4113
4769
4497
2608
3776
2368
1696
2240
5057
7729
4064
5857
2784
3520
3392
2576
3920
4113
7841
6289
4289
2944
2496
1824
1824
2176
3200
2272
2768
2096
2704
1968
7681
1968
7889
2208
1600
2320
1968
2240
1696
3200
2448
6305
7073
2848
12371
2720
2192
1792
2688
1600
1760
1952
2912
1760
1856
2240
2656
2320
1664
2336
1968
2160
1968
1888
2432
3200
2320
2080
1680
1984
1600
2096
2432
3120
3280
2384
1744
2272
2368
1600
2512
2784
3744
2288
1872
3104
2304
1872
3056
2048
3408
3088
1504
2560
2272
6721
5713
5025
1856
8594
5761
7569
1760
2192
2672
3008
2176
2192
4097
2144
4689
1664
1696
2144
1840
1984
1712
2256
2848
2112
1712
2400
1712
2096
2096
2848
2432
1888
6193
7585
1968
2256
4177
2848
1936
2304
2112
3008
2224
4801
2544
3776
3456
2064
3680
5793
6849
3968
1632
4401
3168
1920
2448
2192
1568
2272
1504
2208
2000
1952
1840
1856
2064
2960
1920
7169
3712
2736
1968
2144
2384
2272
2176
2128
1920
2064
2624
2304
1632
2128
2144
2192
1952
1760
9810
4000
5297
8210
2112
1600
2624
2576
4113
1968
3248
2816
1840
2688
2640
2768
2256
2368
2720
2048
2304
2224
2080
2896
3216
3664
2112
3984
1632
2272
7489
1856
3296
2896
1872
1920
3056
2192
2656
2880
2704
1568
1760
1984
2016
1824
1024
3008
2656
5825
3600
1808
1600
2688
2480
1728
2352
2736
2192
1728
2736
1728
1792
3408
2368
1792
2080
2368
1968
1728
1824
2256
2208
1824
1760
1808
1984
3680
1712
3312
9426
5441
2944
2464
3872
2784
2320
1584
3408
3376
3024
2096
1808
1744
1840
1792
2320
1712
2880
1728
2736
3968
5201
5665
8802
2944
1760
2000
2384
2384
2768
1600
2688
3328
3024
2176
1952
3040
3168
2768
2864
2000
4433
2768
2656
2048
1632
2176
2752
2768
3632
2304
2192
2592
2448
1968
1824
2320
2256
2720
2320
2176
1824
2384
1712
2720
2144
1664
2320
2224
4145
2752
1968
2176
2096
1680
2336
1792
1712
1680
2192
2048
2096
2016
1680
1744
2016
1872
2608
3296
2784
3072
1920
1936
2224
2864
2224
2368
2288
1680
1856
2304
2704
2624
1888
1696
3104
5953
1888
1952
1920
1968
2512
1904
2352
2064
2400
1888
2400
1936
1888
2240
1872
2320
1616
1952
2336
1936
2144
2144
4209
8081
3472
2640
2112
2640
3760
4321
3104
7089
2304
2272
1664
2608
2112
3520
2688
2960
3376
2160
2192
2496
2304
2832
2688
1968
4545
3632
3136
1968
1744
1984
2416
2304
3360
2624
2624
2560
2032
3360
1808
2128
1744
2720
2688
2864
4273
2272
2384
4113
2032
2576
4161
1872
1808
2400
2048
2128
1984
3072
3712
2736
3504
2240
2208
2624
1568
1424
1680
1584
2528
2528
2384
2016
1888
3312
2240
2640
2816
2192
2016
2384
1776
5329
6977
7105
2480
2016
1952
1840
1760
2448
1760
2368
2544
7633
1984
2176
1920
2688
2192
3120
2064
2384
2144
1968
3472
3008
2000
4513
2256
2096
3168
2704
2288
1808
2864
1872
4048
2064
1664
2064
2896
2400
1952
2736
1632
1584
1632
2448
2176
2592
1824
2064
2080
2336
1808
1568
4353
9042
14163
6593
16275
5345
2752
1808
2208
2960
2480
1952
3216
2928
2688
2752
3344
2992
928
1616
2816
3872
2320
2352
2176
1808
2944
1744
2448
1680
2464
2896
1920
1632
6689
4993
1744
5553
9010
4833
3840
2208
2352
1536
2464
3328
2144
1696
1824
1920
1936
2336
2192
2016
752
6529
5537
2848
3520
3392
2464
2128
2448
3600
4161
3456
2176
3552
3488
2416
3088
3104
1552
1760
2000
2128
2272
2208
3760
3808
3504
6609
5889
2272
2096
1872
2256
2048
1808
1664
2624
2304
1824
1984
2064
2288
1696
1680
2080
2816
2736
2048
1840
2128
2144
2224
1968
1616
3264
3536
2096
2256
1600
1840
2016
1856
2912
1824
2224
2432
2224
1984
2144
1664
2320
2400
3232
6657
2608
3504
5329
2000
2384
2096
2112
1696
2336
1536
1712
1968
2864
4641
9378
3264
3120
2304
9378
3200
2896
1872
3792
2192
2432
2464
1952
1840
1792
1568
2128
1680
2240
1584
2064
1808
1744
2672
2400
5649
5169
2400
4080
2656
4016
2000
3888
2384
1600
1568
2224
2096
3408
2528
2432
2752
2448
1776
2448
1744
2912
1872
2128
2704
1600
1744
1568
2400
2208
3888
3280
4321
3424
2192
2624
2784
1600
2592
1872
2256
2304
1952
1760
2016
3504
1536
1936
2304
1744
2336
2704
2096
2432
2224
2000
2432
2048
2000
2480
1616
2912
2208
2048
2400
1808
2304
2208
2112
1920
4609
2208
7953
3152
5665
2208
1984
5169
2432
1632
1984
1520
1792
1664
1824
1760
2128
2432
2784
2960
1808
2192
2688
2512
6865
7521
9154
3200
1792
2208
2464
1824
1680
1776
1760
1632
2112
2256
2256
1616
3216
2720
8097
1888
6433
2656
1632
1600
1504
2688
2256
1856
1792
2256
2144
2016
1888
2816
1984
2016
1728
1824
1664
2432
2320
3920
3488
2464
3264
3360
2464
2160
1808
2512
2304
2992
1968
1664
3488
3008
1536
1680
2128
3184
4273
2096
2256
1984
2224
2128
1888
1920
1760
1760
1792
2896
1696
2880
2336
1760
2096
2048
4145
6065
2112
4241
3472
4993
1920
2240
2560
2000
1728
1664
1536
3152
3552
2256
5057
3568
2016
2144
2208
2912
3536
2400
2368
2992
2368
2192
2112
3328
4369
2464
3968
2944
3920
3840
2464
2432
1936
2336
2096
1504
2112
1632
1936
1792
1888
4289
2512
1712
1568
2480
2224
2112
1728
2352
2544
4881
4689
2144
4561
2080
1792
2176
3200
1968
2544
2752
1728
2512
2560
1888
1984
2256
2496
3200
2080
2144
2320
2064
1664
2368
2064
2784
1584
1824
5281
3072
4305
2832
2064
2368
2288
2064
2080
2128
2224
2080
1760
1744
2448
2192
2272
2000
3248
3392
2752
2176
2208
1792
2048
3152
2256
1824
5185
4833
2976
4497
3248
2368
2400
1584
1664
2272
2192
8017
5009
3088
1968
2352
2064
1856
2256
2416
2208
2304
1584
2080
2304
2016
2320
1968
2352
2304
2400
1872
1920
1760
2064
2016
2784
2784
4785
3472
2944
2592
1840
3920
3376
2688
3904
2048
2560
2192
1888
1712
1840
2848
2752
2064
2128
2256
1616
1808
2304
2064
1856
2336
2320
1952
1984
2144
1760
2368
2640
2832
2656
1744
2272
2208
5265
1968
3792
4689
2352
2304
2064
2432
2304
2656
1824
6625
2896
11954
1872
1552
1456
1584
1696
1808
3584
3088
2576
2176
2448
3936
2480
2448
1696
2784
2208
2720
2384
2832
1648
2000
2048
1984
1952
2832
1968
2384
3600
3744
2144
1936
6977
2144
5521
3536
2528
2656
2096
2992
1728
2784
2016
2208
1584
2112
2208
2736
2864
2368
1696
1904
1856
1936
2192
2320
2640
3792
2544
2336
3360
4833
3840
2384
3280
2736
2096
1888
2384
1520
2000
1856
1744
1728
2208
2272
2384
2080
2320
1728
2192
1872
1728
2880
2304
2096
2720
1520
1888
2784
2320
4273
1664
1840
2336
1760
1728
3552
4577
3632
6353
2656
1744
2048
5537
2064
4000
3856
1888
1712
1760
1792
1888
2352
1808
2320
2720
2320
3104
2784
1856
3968
1040
1984
6353
3632
2656
2720
2368
2112
5121
3216
3680
2064
2208
6945
4241
2912
1920
1408
2512
2192
2912
2352
2096
2512
2336
4945
2064
2704
2224
3920
2016
2112
2000
2384
1632
2352
2000
8065
1888
8338
2848
2384
1968
4225
3360
3488
2944
2896
2048
6369
4753
1728
2080
1984
3520
4064
6737
6609
2240
2496
2768
2224
2256
2400
1792
2240
2240
2048
2320
4769
2480
3904
3120
11986
2368
1632
2496
1952
1808
2816
2608
2048
1504
1824
1872
2192
1872
2112
2240
5297
3264
2144
2464
2960
1824
1968
5313
1472
1760
2048
1680
1968
2528
2720
1536
1696
3616
3664
5809
3152
2176
4273
3088
3472
2256
1680
2032
1712
1792
2448
1728
1792
2160
2016
2064
2336
2224
2064
1680
2624
5745
2592
4225
2304
3008
5521
9186
3072
2912
2112
1712
2096
2624
2288
2448
1632
2432
1824
1840
1984
2256
1920
2176
2064
1744
2176
1712
3872
2896
5089
5393
2816
2304
4657
4032
2304
1856
3216
2080
3488
2176
2176
2320
2768
2624
2400
1968
1952
2224
2112
2128
1728
1712
2352
2112
2128
2016
2272
2384
3408
3328
1936
3040
2272
1728
1936
1968
2048
1792
2080
1984
2048
2096
6689
2144
5713
1792
2848
2256
2464
3472
3536
3168
2608
2336
3248
2096
1616
2208
2992
2096
2144
1728
5473
6225
2688
2096
2112
2256
2256
1984
3280
4257
9538
4673
1920
5217
3296
6417
2800
9234
5041
2512
5377
7761
2736
2992
5793
8770
6881
2560
4769
4929
1840
4016
3392
2208
2656
2128
1712
1920
2768
1936
3088
2192
2944
2752
2304
2352
2256
1632
2816
3040
3280
2720
1904
2384
1888
2144
2400
2896
2016
2176
3088
3264
4097
2016
2176
1168
1664
2480
2576
2368
2736
2080
1984
2992
2192
1584
2304
2320
2864
2816
2816
3984
2800
2608
2400
1792
1600
2592
2608
2256
304
2640
1840
2880
2608
2784
3680
2352
2272
4145
3088
3504
3680
4177
1840
1680
2304
1616
1632
2096
2000
2320
2224
5105
5025
6705
1888
2400
2400
2128
2944
2208
3424
2288
2176
1760
2080
1872
2192
2592
3456
3200
2224
1584
1712
2048
2176
1632
3552
6497
1888
1536
2432
9362
2016
2528
4369
3584
3968
3408
3984
6161
2000
5137
2800
2560
1792
2320
2016
2432
3136
3008
2592
1760
2240
5841
2608
6625
3120
2016
2240
2496
2640
1792
2192
1808
2336
2448
1760
2144
1968
2016
2096
2272
1552
1824
1728
2336
2624
3392
2512
2144
2016
1440
2096
2176
2064
2064
1824
1472
4561
2880
1936
1888
2320
2304
2320
1968
1728
3280
2128
3120
2336
2832
3088
2800
1840
2640
3968
3088
3040
2752
1920
1664
1824
1536
1824
2144
3488
2128
2080
1568
1840
2432
5969
3360
2768
4625
2368
2608
1920
3424
2224
1856
1568
2656
4785
4417
9058
2816
3264
2288
1760
2000
2192
5953
5633
2176
3360
3920
2384
2640
2048
2368
1936
1760
2352
3008
2480
2736
2432
1776
1952
2272
2496
1968
1840
3664
4385
1856
1776
1776
1680
2256
2320
1728
1840
2112
8081
6881
2064
4769
3088
2064
3136
1840
1792
2224
2176
2368
1808
2400
2320
2432
3744
2176
1808
1840
1696
2144
2352
3120
3024
2000
3536
4561
3584
4449
1984
2256
2320
1792
1760
2320
1840
3328
2192
2000
1568
1792
1696
2096
2480
2096
2128
2128
1776
2208
2048
2128
1760
1808
2176
2704
2016
2432
1568
2064
2784
3088
3376
2624
2512
13235
2688
6065
2144
2384
3904
2256
1760
1888
2304
1600
2224
2144
2304
1984
2064
2992
2752
2112
1712
1984
2016
1712
1872
1536
2432
2048
1904
2272
1968
1792
2208
3840
2432
6193
5825
6817
3808
3552
3952
1808
2544
2128
5953
4177
3328
5137
3712
3760
5137
3136
1872
2080
2720
2048
2928
2016
2176
2144
2384
2592
3872
2016
1600
1872
1680
1632
1696
2304
2464
3456
3120
1872
1952
2272
1744
1984
2592
1664
2304
3216
1856
5793
2320
2448
2016
1936
2240
2720
1952
2880
2016
2144
1808
3616
2896
1792
2240
2160
1696
2208
1856
1984
3968
2640
4241
1968
1568
1760
1808
2304
2320
5969
4753
1856
3520
4241
2496
1680
2176
2368
2720
1856
2304
2192
2368
2160
2176
1936
2752
1728
2144
1808
2016
1616
1616
1616
2016
3408
3152
2048
1856
2240
2112
2288
1744
2256
2848
1632
1600
2192
2240
2128
2224
1664
1808
2208
1616
1872
2080
2080
2560
2256
2944
2608
3104
2480
1856
3904
2896
4305
2752
1792
1840
2176
1808
5889
1616
1920
1856
1696
2144
1856
3392
1792
1872
2208
4513
4609
3584
5345
1840
1760
2400
1552
2192
1888
2704
2480
1600
1792
1888
2496
3712
2736
2592
1792
2192
1968
1888
2000
1568
2208
2320
2688
2272
2352
1872
3648
3456
8674
4433
3264
2864
3472
2144
2192
1856
2432
1712
1920
3136
1632
1792
2144
2624
1920
2624
2192
1744
2128
2976
2256
2208
4977
2144
1664
2112
3104
2320
2112
1936
2112
3056
3888
1600
2384
2048
1872
3888
5057
3696
4064
2720
2080
1536
2000
2080
2304
1584
2368
1792
2400
2912
2000
1808
1424
1936
1616
2208
1840
2016
2064
1968
2496
1840
2048
2864
2704
3920
1712
1680
1824
2336
3232
2064
2784
3392
2336
2000
2320
3136
4817
3408
4080
3600
3072
2432
6641
2128
3120
1920
2736
2432
4657
5185
3792
4897
2048
2272
2064
2016
2576
2736
7089
3472
6737
3008
2464
1792
2176
3408
1904
2256
2480
2608
2640
2720
2000
2320
1696
1856
1664
1952
1712
2816
2192
3712
2000
2304
3792
6113
3280
2704
4561
4161
3072
2352
3344
4689
4993
5329
3472
2432
2016
2080
2240
2992
2352
1840
2016
2064
2432
2064
1408
1696
1680
2240
3584
1712
3904
2112
1840
3296
4129
5025
2592
2176
1952
2400
2080
1952
2032
2576
1968
2080
2128
2048
2000
2432
2880
2272
1472
2048
2224
2480
2640
2128
1872
1952
1856
1888
2128
1920
2224
2608
2256
1536
2224
3184
2992
2496
2064
1728
1936
2096
1744
1680
2704
2480
2000
2064
1856
2304
1712
2016
1968
1728
1520
2080
2080
2048
1600
2032
1520
2384
3008
2816
2208
2336
2656
1744
1984
1840
3072
2000
1808
2192
2128
2064
1792
1792
1872
1664
1824
3488
1952
2000
3472
2000
2128
1920
2128
1968
2080
2320
1888
2096
1920
2048
2640
2560
2032
2624
2592
2256
1552
2560
2208
2144
2304
2368
2656
2512
1456
1536
1632
2144
2240
2496
2128
2512
17556
4769
11346
2032
5169
2016
2208
4129
2128
2080
3488
2752
1968
1744
2064
1872
1744
1728
1712
2112
1536
1792
1664
2592
2528
2368
1744
1936
1600
2240
3216
3664
1696
2096
2128
1536
2096
2704
1744
2208
2512
5953
2672
4737
2048
1824
2224
1808
2320
1792
2336
1728
2112
3088
1952
4769
2928
2096
1760
1808
2064
1920
2464
1824
1952
2272
1952
1584
2368
2208
2240
2304
1792
2384
1920
2000
1648
2848
3088
2864
1952
2048
2576
2096
2448
1552
1616
1600
2176
1632
1968
2736
2432
2128
1984
2832
3504
3488
2960
2992
3120
2384
3152
1936
4785
1920
2784
1824
3136
2784
2304
1888
2368
2016
1728
2048
2272
1728
1696
4977
3968
2896
2320
5377
3088
2384
5169
3200
3008
2752
1712
1424
2448
1840
1856
2912
3520
2112
1680
2096
2528
9058
4577
2496
8546
4833
1600
2752
2768
1600
1808
1936
1952
1584
2128
2080
1728
1856
1776
1744
1968
1808
1936
2176
1952
2144
1888
2384
1952
2192
3296
2592
1856
1696
1824
2304
2096
1728
2192
2592
1536
4769
3280
4048
1872
1936
1936
2064
2656
1840
2448
2448
2304
2176
1840
2432
2432
2208
2048
3536
7169
4513
4080
1936
2688
2832
1584
1952
2832
2224
1856
2400
2528
2016
1616
1536
1984
1808
2176
1552
2240
1584
1456
2560
3408
2576
1728
2736
5793
3072
5457
3936
1744
2240
1712
4145
1680
3536
2768
2448
2048
1712
1824
2080
2176
2048
1920
3808
1712
2176
1616
2128
3104
1744
1728
1952
2336
1744
2224
1568
2112
2064
1920
2560
1504
1680
2896
5505
2704
4129
1840
4417
3536
7329
2736
3040
1632
2224
1984
1600
2352
2112
1792
2576
1984
2080
2176
2816
2656
1920
1840
2064
1952
2256
2096
2160
2048
1968
2912
1696
1632
1824
2064
2208
1440
2560
2912
4241
2176
3984
2176
1824
1968
2304
2080
2432
2608
2528
1824
2176
2128
1936
1712
1584
2256
2368
2144
1952
2464
3280
2864
1904
2160
2704
5921
3968
3104
6241
3200
2144
2848
1760
6881
3584
5025
1568
5121
2640
2224
2048
2096
4097
1872
2080
1728
3376
3280
3088
2880
2528
2784
2048
1856
2352
1776
2400
3088
2192
1696
1920
2048
2320
3008
2240
2080
2016
4257
2704
1776
1984
2192
2576
1584
4801
3056
3248
1920
7025
4849
8161
2304
2384
1712
4193
2448
4417
4417
3280
2096
1968
1824
1872
2640
2096
2240
3296
5809
5297
2640
2496
1808
1712
2864
2144
2608
1856
1616
2912
2176
1600
2128
2048
1760
1632
1856
2000
2192
1840
1680
1776
2464
3184
2080
1504
1792
1632
1936
2448
2912
2736
2976
1984
2112
1792
1920
3088
2096
1968
1760
1760
2304
4641
4257
2000
1760
1824
1872
1936
1712
5905
1888
6065
3552
1664
2016
1552
2496
1952
3696
3424
2528
4769
2144
1840
2352
3408
1664
2720
2416
2560
1808
2096
4113
1968
2016
3392
2128
2480
1552
1616
1776
1728
2048
2192
2048
1824
2832
2928
2352
2000
2320
2304
1856
1920
1792
1872
1744
1712
1680
2000
1920
2480
2064
1584
1840
2384
2208
1824
1552
1840
2176
2960
3232
2768
2560
2864
1968
1952
2432
1936
2320
1888
2144
1696
2176
1888
1920
2576
2208
2080
1824
2016
1696
1792
1456
1616
1568
2192
1920
2448
2080
1600
2480
2368
2208
2256
1712
2192
1664
1728
1840
2272
1920
1696
2256
2192
2016
1968
1472
2608
2976
1936
1968
2240
2128
1792
2096
1664
2096
1888
2176
2528
1840
2144
2096
2384
3088
1920
1824
1840
2064
2368
1712
1744
2144
2352
2000
3456
4993
1936
2464
1664
2864
1872
2080
2576
3920
2896
3472
2432
1984
1920
2720
2624
2368
1792
1888
4177
14259
7441
3968
3520
2208
2832
3360
2112
4561
3120
2784
2128
4609
4241
2560
5025
2112
2176
2096
1888
2224
1936
1680
2176
1952
1680
1824
1984
2176
3552
4401
8129
2112
2336
2000
2000
2144
2464
3552
1792
2272
3600
2144
2896
768
2096
2224
1376
1616
2448
1936
2320
3328
3088
2944
2384
2016
2112
3440
2352
1728
2944
2400
2128
1664
2432
2272
1936
2640
2880
3328
5345
5121
5105
5697
3808
3456
5297
2704
3136
2912
2176
1984
2304
1792
2368
2336
1920
2336
1600
2336
4609
1712
2896
992
2240
1984
1952
2464
2576
1744
2176
1840
1600
1712
2512
2512
2896
2880
1760
2336
1584
1872
3152
7105
2496
3568
2768
2944
3040
3328
3504
3456
3088
2144
3536
3904
3840
3136
7169
4417
1808
1792
2000
6017
6785
2208
13315
4417
1664
2576
2448
2096
2736
2064
2208
3216
2272
2432
2080
2352
11298
3152
7089
5185
2304
1952
1776
2160
2256
2064
4769
2144
1984
1632
2608
2688
2336
2176
1936
2944
2192
2272
2720
2256
2144
1840
3232
5009
1824
2368
2128
1856
1904
2112
1664
2272
2096
2848
2960
2000
2096
2240
2416
1984
2112
2128
2912
2176
3152
2064
2640
1712
2000
1792
1952
1504
2432
2656
3632
3264
4305
1936
2608
2080
1952
2080
1984
2272
1872
2080
2064
2624
1936
2096
2560
2528
2368
2224
7121
4273
4577
3248
2512
1920
1984
4961
2976
1808
1616
2112
2768
2096
2208
2144
1520
2688
1696
1760
2608
4129
1872
2880
4145
3536
2432
2016
2736
2240
2208
2016
1616
1776
1872
2208
2240
2128
1680
2576
2816
2368
2352
2240
3488
2848
2896
3376
1728
2768
2816
2048
2112
1952
1936
1856
4849
2960
1728
2080
2672
10066
4961
2304
3120
2720
5457
4129
2096
2416
2960
2496
2192
2288
1808
2368
2176
2912
2048
4305
6817
7073
4161
3456
1840
1872
2256
2224
1936
3360
2816
2336
2192
2448
1888
1808
1984
2080
1968
2352
2080
2224
1808
2368
5185
5729
3728
4257
3072
1680
1568
3024
2816
2064
3360
3856
2096
976
2816
3984
4993
4993
3408
2976
3024
8978
2576
2896
2464
3776
3184
3040
2368
3120
2512
3568
3744
2672
6993
2544
2000
2192
3920
3408
2304
2288
3520
2368
2400
2512
2848
2288
2080
3904
4289
2000
4945
2736
2496
3616
2560
6289
3920
2080
2320
3168
2512
2288
2160
2144
1760
2256
1808
1744
2656
1792
4993
2480
3376
2160
1856
6625
3088
1952
1920
1936
3008
2016
3040
3520
5201
2640
2832
2112
2384
3136
3552
4321
11842
2288
2848
4609
7985
10114
3152
2112
2512
3344
4609
4817
2448
2912
3152
2224
2448
1648
7569
4833
3120
2560
3200
2512
2528
8194
3760
2880
2688
3168
5393
4080
2064
4177
1824
2048
1888
4897
4689
4625
2464
2320
1808
1984
2000
2192
1952
6065
9698
2208
1776
2432
6993
3024
2336
5217
2576
3232
2704
1808
2192
2816
3808
2448
4513
1984
2320
3264
3936
2704
1664
2528
5553
3760
4097
6881
3872
2928
2144
3424
8081
5041
5505
2096
2960
2400
2944
1792
3648
2112
2432
2944
4465
2352
2080
3632
2560
9538
2656
1888
3152
2928
5409
6321
3456
3088
1936
2128
2000
2336
4801
4785
2016
3024
1792
2416
1856
2256
2448
9666
4801
6689
2480
2576
2016
2368
3600
5905
5009
1712
2304
2496
3376
6785
2688
2816
2992
2528
9698
2576
7601
2336
2272
5233
1696
2816
2048
5041
5809
16195
1824
2944
6481
2432
8338
2144
1616
9698
4961
6929
15939
5553
1680
7697
7889
9090
17444
7169
3360
3136
2720
10498
6337
11666
2256
5393
2000
3936
2352
8530
2944
1680
4305
3536
7185
3536
2384
2656
8161
4961
1792
2224
1952
3392
2576
9138
9714
17572
12979
8770
15331
3008
6929
9282
19716
13363
4529
31895
29703
3392
7857
24373
11010
4048
6449
1968
18596
15043
2128
2928
9714
1824
6113
16275
20741
12739
3968
4513
20965
42762
20068
2032
4577
9490
34136
17300
5025
2352
4177
5313
7265
4625
2992
3568
2304
11154
14419
9058
3136
5585
2320
2528
2160
9122
2384
5057
5633
3968
2336
2704
2512
3344
1840
8610
6033
2144
6017
2560
8962
2512
19172
24678
14627
2432
7057
4048
19540
5953
18644
11938
20629
18452
14691
5569
3632
4048
4961
3952
11970
2368
7937
10930
12483
3456
9218
5281
13587
24630
13443
6305
15923
25254
14307
3296
12291
4129
5265
5809
3808
13603
2960
2208
8626
3488
2688
1760
3376
3488
13395
14387
23253
2624
2752
5201
2144
7489
5777
13667
13091
11314
10690
20372
6705
8658
10466
2704
9570
13043
4753
6529
3472
6049
5665
7601
22341
26406
12066
3328
2320
12675
5457
16996
3200
2304
8210
3680
5057
7057
4769
5025
7441
1888
7761
11138
16019
1696
4401
5473
3360
7857
1872
4353
5121
10578
3616
7553
2560
2752
3680
2576
18004
4561
14019
4929
9346
5633
1952
15747
3680
15411
11106
5569
4881
2880
2944
22357
23029
7617
1760
2336
1984
1792
11666
10930
1792
9170
14371
17364
14611
6593
11282
18836
3776
3712
7345
3600
4689
2144
4545
1824
13475
4032
5345
16404
16820
14291
3360
23093
5537
4048
5041
2624
14531
8033
4881
7313
8914
5697
6081
5537
5473
16307
17092
20276
2528
5457
6193
10818
2320
2464
13827
25750
6945
32391
33544
2688
24646
2992
10642
7697
5265
12082
3680
3712
2960
2400
10562
4048
2224
6945
5425
2112
1744
4977
13379
5985
13523
2224
7393
2736
17748
6209
2096
24085
18372
9618
2496
14611
19284
5377
11698
6273
3472
11714
16740
5297
3680
3776
1712
11650
21813
2256
4417
3104
1984
7697
12947
4705
4593
4881
21205
17892
10402
3168
4000
3920
1952
2512
2400
2240
5617
9858
10802
4273
2736
3888
2384
3408
2464
4657
3968
2880
6049
14595
16179
15939
7425
2816
3376
3632
5713
15379
13123
12963
11442
7905
10338
9890
8802
3856
18052
17684
20981
24565
15539
3392
2592
1920
2992
7105
3136
2768
11570
20356
23653
7681
6737
1824
2432
5249
6209
2352
5681
2736
3424
2736
7329
4513
1584
12595
19108
8866
3344
2176
2512
6689
5809
5857
5297
2592
2720
6113
3728
2848
8001
16307
5169
4817
4977
9426
5377
4513
8177
2096
5633
16275
8113
10290
10546
15251
20613
4945
1952
3984
2480
7137
10818
4385
3904
11906
9266
4657
2832
3088
4529
2112
8850
6081
3808
2384
6145
11746
2656
10162
6753
8898
9874
2064
3552
9538
4305
4801
3536
2512
11170
2192
2448
8594
19364
3792
3312
2432
9618
8850
20885
8258
28582
6657
14947
6017
5377
3072
10514
2224
2992
2624
12066
14787
5313
4497
4032
4161
3216
2352
1728
2992
17684
3472
9058
6193
12787
12162
6145
4161
8258
11970
2128
11906
12210
10306
2464
4401
9266
19220
12082
2096
12723
10530
7873
12803
2208
2496
2208
8802
1616
4769
2352
11170
16740
5009
2064
6481
1568
3808
3408
8514
2880
2128
7313
2768
5665
4961
1936
7249
3104
3744
2080
8882
6977
2240
4705
2576
11266
4609
7841
3936
1984
11634
2384
7361
2320
5201
1760
3168
2528
1664
10146
1952
15731
9282
2160
17332
3712
4689
3408
7505
2448
6401
3024
5777
5153
2592
11826
7777
1920
5585
6081
4625
4593
6289
4145
2384
11010
5201
2208
2464
10834
13123
11490
3664
7169
6977
8033
3056
2560
7889
8370
5569
11938
15171
11858
5249
5537
6065
9186
8338
23637
14211
7297
3600
4193
2608
4641
13539
21765
2464
1792
12242
9026
5841
3072
4577
2464
3472
3552
10274
8177
6337
3936
2640
3072
3712
6113
2576
1664
6625
1984
3056
15331
21829
8194
3264
12787
10162
7233
19316
11282
4881
2688
12771
1840
3248
1984
1808
4353
2432
2448
6209
29655
2304
2112
9026
14435
14419
14483
2432
4064
5169
2864
2464
11714
2224
2912
1760
2896
3072
3632
6353
7777
9522
2416
15187
2816
13699
13107
3088
12050
3008
2656
11202
3424
10002
9986
2512
7953
5809
7985
3760
2864
1872
8882
13923
7169
3200
2960
1952
2400
7841
8402
4641
9714
6945
1744
2288
5681
2496
2320
1920
6449
9154
3760
16964
4161
3472
14803
12883
2528
9522
15443
8594
1728
4337
3360
1824
4881
10466
10210
4561
1872
2320
3856
6545
4257
7745
20084
2240
2304
7937
10850
11330
1952
9362
6577
7329
5409
2960
2592
7057
19716
13091
1792
10818
11586
3424
4145
3280
1952
2592
4865
4161
4865
2560
4032
2352
2944
2544
5793
2784
4609
14307
2192
3904
11522
7633
7073
6945
2800
2912
5169
13587
28807
2272
8930
2672
11250
16532
7553
2128
10642
8866
17556
3664
3008
2848
7425
3664
3712
6465
5377
27078
3616
8546
6737
9282
3712
6065
6145
3856
7697
4193
1696
5377
2496
2256
3888
6993
11522
11266
1984
20693
8930
2944
2912
2448
3232
2080
2912
2608
11154
18708
3568
1872
2336
7745
11906
4048
20661
11042
2000
3520
6433
6801
8674
3920
2432
7985
1840
2784
2208
6417
1776
2848
2400
6529
8642
1920
5761
3104
2704
2432
2224
12563
2496
1840
2992
1744
1984
2176
2080
10754
4417
3376
5313
7313
3776
3040
2816
2848
8498
5345
1680
2128
5361
8338
8882
15699
3952
3744
8866
2080
21797
24854
8274
2992
4016
8450
2512
11170
5169
4545
2208
8834
2128
4000
2224
4753
14643
2672
10114
8177
3856
10274
12291
10178
9378
9138
15299
11586
3488
6401
4993
3456
9234
13267
9122
5153
2096
4769
2320
5345
7585
10130
4657
3632
1936
2480
3024
2448
6065
3616
4657
6097
13363
12194
9506
9090
5873
15811
9906
7089
1792
6401
9346
5953
2176
2240
4481
2016
2192
2688
1632
1696
3872
4097
2240
3840
5457
14819
3088
2144
5217
11410
16083
7649
2096
2272
2992
5665
2560
6065
3584
6673
1248
1984
2688
3728
4369
2496
2176
2304
4625
6625
2896
2752
1968
2560
7665
6417
3712
5089
2960
2544
6673
2160
3872
2192
7825
12579
16804
2064
5217
2016
1632
2960
3168
2320
15363
5601
2544
1872
8674
2464
2496
3472
2336
1984
4913
3456
4913
11650
20116
17748
2464
5345
3472
1952
7297
7393
2304
2128
3088
13171
3360
6353
3920
4016
1840
2176
15315
14611
7521
4881
3456
10866
3904
2992
5553
1744
5713
2576
3904
5681
2080
4193
4689
2320
4225
5569
10674
12098
12451
2128
4080
9522
13603
7489
2800
2064
2512
2288
3296
4048
2560
7201
24069
12002
4064
12114
3888
3056
2896
11970
6881
18900
14899
2352
1712
5201
6529
11602
4561
1712
2432
4561
2336
4641
2848
3328
3888
3280
4161
3856
2480
4737
1984
2768
1696
4273
10722
14307
7569
7921
5825
13059
14531
7825
12963
2864
9234
3936
5505
2832
1968
10546
6561
1792
2624
5393
2208
2432
6369
13347
4449
5297
6177
14339
2608
8914
3344
7265
6929
7217
6865
6273
15539
2912
1888
6273
3872
2112
2128
3552
4401
5969
2016
2592
1728
8177
2272
1840
7521
3488
2064
12066
5889
4801
2080
9090
12162
2048
6305
2448
2736
1872
6561
10434
8001
6017
5841
11634
1872
4321
11410
7393
2208
3744
4961
8001
3408
2896
22789
9874
1952
9266
3024
2336
3664
10306
3424
2592
4641
2208
8081
5473
5473
10066
6833
9410
12627
8914
3168
2736
5921
9682
7409
6529
4801
2432
15043
11426
5953
2064
5185
5153
2096
7361
8770
5521
3120
2592
5777
2816
9538
10098
8177
1968
2528
6945
2208
4657
4385
8177
7361
4273
5585
2656
1984
6817
13811
5697
12034
7601
4529
2448
7473
4577
7377
17044
16996
3232
3904
2576
7761
6849
12755
18964
2592
16676
2480
6481
3712
8001
7873
2432
2864
7201
5905
7633
1808
2192
2432
9170
1872
10402
2432
3728
5841
4961
11090
4545
1920
2512
2432
4673
5777
2480
4241
2512
3904
7697
3248
2240
1744
6049
7041
1616
2000
2400
3104
4145
4321
3632
3072
3664
11154
8610
3328
9762
4048
3616
4449
1888
5025
1968
2448
2752
4641
16692
9314
3488
3888
10242
20901
14595
6689
5537
4849
4545
12066
15523
5009
3296
8706
3616
4753
2016
7137
3968
2608
2448
2272
8514
15395
10130
6321
4433
2560
6865
14163
6433
3056
2784
9938
12659
9682
2768
3312
3104
2976
11410
1968
3296
2656
2656
4481
7313
2560
5201
8177
1952
1808
1904
9858
2432
2784
2064
4097
2240
2496
2384
5025
2176
2928
2080
7969
8706
3104
1664
2240
2176
5681
3984
2880
7473
2544
10514
6785
3344
7953
5169
3664
2224
2624
1760
4561
2304
2368
3120
4032
2336
2624
4048
3888
2128
1968
1664
3088
2176
3120
8562
13395
13459
25942
14803
5953
7041
27846
25238
24517
20372
10994
2368
3360
16211
3904
5921
3248
1616
2512
1872
2576
3504
4048
2816
4305
2128
2368
2400
3328
1760
3152
2192
13011
13651
2352
6081
3088
11154
5185
3024
5025
2576
3552
2384
1840
2112
2752
2528
1824
2720
2320
2400
1616
7761
5329
5457
8786
4417
7201
8129
2176
2560
2768
1728
9922
6209
3072
2736
3536
3200
2560
5009
7633
11922
13267
11218
10786
8754
2640
4193
1952
3168
10306
13267
7873
2608
5681
8882
3632
5217
12355
9858
10674
7345
3072
2640
2384
2080
1856
2880
7713
2848
1968
4529
3664
2480
7297
2704
3616
2512
1872
2560
2336
2080
5073
1504
5009
9410
2608
4513
2112
7313
5201
2464
2976
2768
2880
1504
1936
3568
8370
2144
4016
8626
18852
9058
5121
6849
5617
4609
2576
6625
6209
7777
6785
15027
6449
3040
1856
1744
2976
12018
5713
3200
1840
2224
3808
2832
2944
4353
4529
2352
7761
3600
6449
6305
8177
4401
4113
13571
3936
2192
5169
2352
8722
3280
2064
1472
2896
2320
9442
15891
18180
2656
6849
2832
3920
8994
4225
1696
4289
6929
4257
5377
5473
2688
3328
2240
2368
7553
4657
5793
5409
3680
2656
14115
8578
6961
2864
3136
4689
10946
7969
1904
5777
2208
2912
2128
2064
4785
7297
1824
2304
3744
2512
9122
15379
2400
4545
6753
2944
9138
9298
2608
3216
1696
1968
2624
4769
3840
4753
3232
2560
2528
8177
12082
9938
2368
3248
14867
12258
8930
2928
5521
16259
20004
17668
11586
13491
4801
1696
2096
2608
1856
10914
11410
2096
3248
5521
2736
5041
3088
2352
16788
17828
3152
6801
8386
2656
14035
12707
2976
2624
14803
11730
5537
1920
2336
1872
1968
5825
2432
1920
1728
2704
7761
10786
13827
7985
2912
11346
14915
4913
2128
17316
10802
4257
2304
7777
2384
6849
5953
6481
2528
9490
4289
3552
3200
3152
3264
5553
6049
5249
2096
2240
3472
1808
8354
6065
2208
2880
1728
4881
5809
4129
7569
1840
2832
2448
3552
1472
6689
2128
4577
3632
6017
10338
24261
17668
2304
5809
4016
18068
23781
2112
4161
5009
3632
2400
10706
2112
7361
5169
3824
6401
4609
1888
18500
17300
4016
2928
3392
9394
16612
19476
13395
2848
7345
3344
3536
2944
1856
3936
2192
12130
12034
5393
2352
256
11426
14163
18596
19972
8065
2800
4753
5409
14339
18500
17604
16259
15715
8322
4737
2912
3792
4177
9298
6433
7793
12851
6769
9378
11026
8210
1904
3136
4545
6833
5297
5729
7041
7361
3040
2352
5969
2384
12835
27638
25526
13891
3392
2832
6657
5841
3120
4833
2720
3296
8226
3200
6337
15091
10642
2624
2912
1888
6353
2320
8530
2528
5217
2480
12210
13843
7425
528
1792
5057
10338
9234
7425
4177
2448
2624
4129
15107
15283
7521
2208
4993
13043
12499
2448
4080
19316
15219
7169
2176
2752
2688
4417
4145
3120
12499
9138
4481
28406
4000
3120
15715
15827
7377
8418
4193
2496
2208
5121
3600
5057
5089
4897
4449
4881
3616
4817
7361
3104
8466
11938
4449
2736
2528
1680
1648
4129
15075
4737
2528
2096
1712
2592
8274
8642
8354
3552
3888
3792
6193
1664
3056
5873
2224
4433
3408
4369
3456
8898
4705
3248
4225
4113
4705
2576
2304
2832
2112
7953
6065
6145
4785
5137
2368
15651
5665
10642
13603
2816
2704
8258
9922
10386
12515
15155
2128
8033
2896
21269
6689
4657
9554
2720
11986
1776
2656
3120
2192
2592
3216
7249
9042
6097
9282
4673
10018
19748
8258
26310
25430
6113
2560
5569
2592
5105
7825
14131
10178
5089
2320
3360
3488
5729
2864
5697
4673
3936
3392
7745
8706
6497
4113
3008
3072
2752
2576
11810
3152
2304
2512
3664
14979
15443
3024
3840
12675
9762
3120
3696
1984
2976
4769
14675
15331
2256
9682
2320
13699
5185
1952
8210
7969
4801
2016
7313
3104
2960
3776
2048
6545
3152
5681
2640
6193
2272
2176
2240
4481
5329
12835
5473
2480
2320
7841
11986
5457
7073
9746
3072
12723
3808
13411
17444
3392
14339
2448
1920
1376
4513
5745
3936
6225
3712
14467
3920
3664
4513
2816
2288
3200
8898
3712
5009
2368
4417
3712
2944
3440
2096
3920
9042
3024
2608
3552
4064
2480
3040
4353
4353
2752
3072
5553
3408
2256
6417
3152
2320
7265
9394
26390
4193
9410
5681
16516
12947
2208
3520
6577
4321
2304
5841
3680
3216
2896
2256
2144
2880
2960
7953
10962
6657
5313
11138
2304
2304
2240
11490
6721
13811
4032
1568
2352
4641
2208
5313
4241
2848
3552
5793
6993
5185
6945
1824
5201
11938
13523
2608
4769
9138
9666
10306
8402
1840
5185
8706
9106
3120
8177
2336
1760
11586
8033
2336
12547
2480
17380
2656
7537
13427
7873
5025
6833
8418
12451
3792
2080
1808
3056
4977
15459
11794
1680
1472
3104
3136
2608
2448
3536
4449
2320
2368
7569
3392
3632
2400
1744
1984
1856
3056
8242
1696
9602
10258
4785
1968
5009
5361
1760
4417
4113
6913
3856
1920
4000
1952
2528
1968
3136
2080
2976
1728
5473
3552
2864
3216
3664
1824
2480
2096
15747
20917
13795
3552
11042
2624
7377
2640
6097
5537
1936
6625
7633
2000
2592
1936
6913
2752
4913
9746
3008
4689
7153
6289
21861
4433
4705
3072
4337
5697
6305
4657
2032
3200
5425
1936
5313
2960
1840
2064
4032
3072
3056
3280
3248
1936
2080
2208
2912
2304
7905
8338
6625
4064
3376
4048
9234
6225
3728
5889
9858
6241
6097
2736
1680
15411
12210
2528
2464
2720
1952
3296
2752
1824
2416
1616
4193
3632
2512
6465
5473
3216
2496
12963
12931
9378
8242
2832
2704
3792
2224
7601
5169
3040
6145
13507
11282
2688
3104
5217
3200
2512
2384
2576
2048
2144
2256
2944
4305
2816
3744
2912
3248
11234
6209
4481
3248
2224
8001
8978
6705
2560
2512
2672
2240
3328
4401
3904
3536
7041
2384
4273
11154
3840
1920
4305
4529
4609
8274
15907
15043
2464
3232
4817
9522
6801
3552
4273
1760
8226
3152
3584
2112
1840
2560
5201
1824
3632
2880
2528
3760
2000
1328
4048
2336
8354
8626
2992
12643
2928
3472
10034
7761
3968
2592
4273
2976
2240
6305
9154
2128
10114
4433
5217
2192
2448
3712
6049
2288
2624
2192
5761
8210
14915
8274
3936
2512
1968
3072
2112
1824
8370
4000
1808
4545
2016
5697
5713
1840
2896
1840
1760
3792
2000
4881
11714
12867
9570
26662
4145
7361
13507
10306
13923
3856
1872
4625
7057
3232
4417
2864
3280
4113
3520
2352
1744
2352
2224
2144
7361
9858
10562
5297
7729
3104
8450
9922
20276
8658
2944
3248
2544
8177
9586
2304
6625
2784
3872
6177
4097
7601
5153
2144
1872
5889
13459
7185
1696
1984
1952
6369
2528
4609
11410
4785
4673
2368
12915
5793
10130
7233
3840
2256
2320
1760
1696
4433
6289
5649
2560
5345
3408
2288
2576
1984
5457
2576
2976
10690
9234
4577
6849
3280
3200
2112
5617
2928
3712
4401
3648
2112
6497
2400
5937
2944
3104
2320
1968
1968
16227
2064
17348
16452
19044
3744
11410
11138
4016
24565
28054
13635
8161
2992
4305
3360
3536
5009
13235
27926
11778
3792
4016
2208
4433
4337
9250
4913
3920
1936
6193
2656
1696
4161
5889
3872
4273
3808
2192
9538
1808
4785
9394
3264
2192
2608
2192
2352
8210
3232
2352
10578
12755
3232
8354
12819
5457
3872
2384
16708
5345
5681
9858
18836
2528
1856
2864
1712
10210
19604
13475
4273
2384
6161
2720
11714
6865
6097
10658
6529
3088
6289
2960
2128
13699
18356
4097
7665
2240
9938
1856
2512
2560
1856
2080
2352
4689
14003
3248
2352
1904
5057
6977
6625
4225
3024
3104
1840
2448
7009
12563
12130
8033
5377
2672
15139
18564
7521
6481
2912
2256
8674
4561
3008
3344
2496
3408
2496
2096
2640
4545
14899
22005
20068
16964
3152
5969
17188
17988
7393
11250
9602
3408
2624
10674
18100
22981
5473
3968
3408
3376
5425
8866
17204
17492
10658
2416
1936
2512
2976
6689
10402
6881
3424
8594
9346
4513
2608
4145
3312
2448
2144
2560
2784
2816
1632
8161
2144
1984
3968
3792
4801
4833
5809
4048
8177
10402
4897
2064
1760
12851
11570
3648
4113
1792
2768
5537
3424
1712
2528
3424
2384
2432
3200
3008
2912
1872
4529
14339
20949
16019
3120
2352
4113
34104
10578
2912
2784
5089
4753
8738
6913
6209
2896
2080
2384
4481
3968
2304
1936
4129
6625
3824
6257
10498
2752
2224
1968
1952
2384
3472
2320
5025
2304
2832
1792
2944
2640
2256
2384
11618
2320
5841
4801
2256
4337
2256
5329
6065
7121
6225
3056
6353
1712
3328
2480
2336
3712
2480
19028
14131
1920
2960
4481
7009
3104
16868
7617
12963
3280
10562
3008
3840
3088
11554
7617
1824
2800
3552
5185
23477
28534
12675
11906
2096
2704
2224
2368
6017
22021
4032
1888
5665
10066
8177
6273
10514
5585
2912
3600
7233
2400
2752
3872
1664
3856
2256
2544
8177
2976
8658
3840
2944
5041
8242
12050
1792
2272
4561
1888
6289
9250
9474
3344
4833
3760
1744
2416
4881
6657
6737
3376
1840
1808
2224
3936
2256
8850
6305
5425
11218
4785
2784
5217
4545
3984
4161
2528
2320
2544
10562
2672
15443
3536
3664
10658
16019
2832
12627
1968
2960
8642
14371
7393
7329
3040
6689
3904
7681
9538
2304
4545
14803
2496
3408
3984
13779
10338
4385
11858
11138
3264
6193
5089
3984
3168
1808
3376
3056
12563
23685
2272
21253
20565
17060
3376
1696
1872
2096
2352
3152
2992
3328
11010
5473
4929
5729
2640
1920
2352
1744
2288
2752
6689
10498
12579
6465
5665
3776
2896
1632
2352
1696
2304
8594
7137
4048
2128
8177
19012
7761
8914
2208
3264
5761
8706
7409
5969
3456
7297
4513
2240
2384
10418
8226
12739
11314
12931
3456
4321
2256
6481
12291
3520
2336
3888
2192
3648
1744
6625
4961
1952
3248
2272
1616
7873
2176
3968
3808
14755
2128
6097
4497
7041
9842
5649
2096
4593
4225
2624
2528
6817
2864
4064
2128
3504
5137
2192
4048
2016
6657
9266
5713
2720
3280
3536
2768
5713
4897
6097
2080
3552
3360
2112
4833
8370
3088
2048
2704
2848
2336
4064
2064
2992
4529
7489
24742
11746
7441
10002
4817
4417
12835
16532
18324
6529
3024
2448
2048
2832
5649
1808
2208
2656
1856
1984
3296
11858
2864
1632
4241
4721
3232
1632
2592
9186
3936
9874
9170
4145
2864
9490
4225
2480
2192
1968
4913
2960
6497
2704
5569
1744
4817
3152
2848
5185
1856
2416
2752
2256
4177
4449
5057
4913
2192
3344
2576
8546
5201
10962
12034
2080
2768
2096
5505
9410
9298
10434
5441
5825
4833
2896
5041
2208
4785
2512
1840
1696
4545
18772
21541
4321
11026
1824
6289
13363
3840
1888
6913
3024
9554
3552
1824
1824
14291
8177
2864
10514
6945
2256
19156
21781
9394
4385
7649
15011
20164
9906
10898
3792
9938
1792
3872
4705
12803
4817
2432
1952
1952
3136
5585
1872
3040
2720
7585
2608
2480
4080
3280
2464
1712
1952
9170
10834
3504
7569
2320
4753
15571
13667
3504
2512
1872
10306
4513
5345
11938
3392
1904
3200
6513
8658
2736
2512
2112
2752
2544
1696
3840
2720
11970
3472
4577
4289
14019
1856
5921
2000
7617
9346
3472
3776
3472
2016
4913
1856
2240
3072
5441
8177
6673
9794
4401
2720
3696
7937
8610
2496
3968
4929
4129
4513
2368
2352
14131
17764
4769
5473
8898
2272
7745
18932
4865
2464
3280
2048
1456
7409
12995
5633
4289
2432
4385
2944
3200
2512
5025
2064
13219
21701
14291
3728
7633
5201
12210
12707
7825
12323
15267
16035
9042
12082
11458
7937
2576
8690
8274
4369
3328
5793
3536
2272
3024
7665
9506
3936
3488
7073
2832
4032
11170
8418
1920
2272
3488
4785
7825
3568
2576
7313
6225
2864
5297
8418
2384
3088
3040
2576
6801
2192
2992
4289
12355
4769
5345
25510
23029
4257
28582
5649
3360
10306
3632
16083
10930
13955
15827
2592
9618
7729
6993
4753
5297
7969
3616
3760
5297
9890
10434
2944
4961
3968
2800
2864
2240
2592
2112
1616
2048
2208
3728
2704
1616
2336
8690
4817
2640
8177
16948
2816
2192
6929
1984
2720
1984
9906
2192
3552
10514
3280
16804
13859
11266
10770
2016
7665
2272
17700
13667
2400
1776
2000
3184
4225
1792
2208
1808
5201
3248
9090
3632
10066
7073
4273
3008
1952
9090
4961
8145
14323
21509
16948
3456
5361
5329
9858
17812
8770
3344
2432
4353
2368
13299
1888
2752
2240
1568
7297
8065
4865
4449
3760
17204
18644
4016
21797
13779
12739
17988
7329
12082
5713
2112
6321
8882
5377
13299
2080
1984
5169
1968
4064
16452
2016
6529
3168
3984
9490
11234
7697
2976
2048
1600
2144
4273
2496
3712
9266
11730
3776
9042
13571
2528
7553
11298
10722
11778
5809
3088
1824
6705
20004
7521
12643
2656
2352
4785
7073
5809
7681
2240
5009
8210
8530
4865
13107
6545
6785
7505
1984
6657
7969
7409
5681
9090
11362
8338
2192
2400
6081
3232
4737
12098
9298
5009
6465
18756
4433
7953
1616
2400
3472
25686
2352
3072
2192
2320
4705
8802
7201
12755
4481
3360
4657
3056
2432
1968
3840
2144
3024
8706
18500
2080
5681
6433
3472
10834
2096
1872
8210
4689
3488
5473
4833
5377
2464
3424
3408
2336
12499
3216
6033
4593
7297
4129
5841
1872
2256
3680
2384
3408
3872
4193
2080
11858
2672
3616
16355
6065
4289
2752
4289
10498
4817
16612
11842
2208
1712
4961
5569
4337
5217
1984
2080
2096
2608
4993
4689
16948
9986
2480
3984
5441
6737
3568
6721
1648
5361
4545
14339
3136
4000
2624
8626
8290
2144
1888
3952
2544
1936
1808
1936
1920
4737
4000
6065
6145
4481
2128
1680
2416
1680
13859
3504
3264
3088
6833
17828
21221
8354
2784
6529
21765
20709
21717
21525
7809
8242
3760
2400
2816
8882
8129
2400
17140
18484
11714
1936
8177
2112
2848
5697
5169
3456
2016
1696
1568
1552
3584
2336
14675
2176
4577
3760
2368
1792
2576
1760
4401
3392
9666
11554
19028
7953
4641
2000
2752
10194
13219
9282
17172
3824
4401
2944
2176
12194
12387
16227
5169
6401
2224
4225
6417
1728
6289
2512
8834
5873
5857
5585
21493
8594
2688
13331
3888
4241
6913
3264
3360
2304
2592
2640
2112
12499
20517
22677
4161
3280
1888
16596
3632
2112
4241
3744
14419
15203
4753
3600
2176
5169
6417
2688
3904
3936
3376
7841
7553
22821
2768
2432
6049
2208
4945
10978
4929
2880
4433
2512
3232
2080
4032
8290
3040
2384
4048
3840
4321
3568
1600
9042
7393
6305
8610
2016
3328
2144
7873
6385
3984
2864
7681
5729
5073
4769
7585
2816
6017
3136
2704
1536
2528
2432
5265
2864
8177
6881
2688
3920
6961
5889
11202
1936
2560
4193
3328
2192
6177
2512
3264
3984
3552
7505
4577
7265
3296
8626
3472
3600
6625
3664
15427
3104
9682
4673
9762
10658
4593
2592
2144
2976
6465
16051
8546
5329
7393
4064
1808
1808
1808
7745
4865
5281
2752
4048
8177
6801
1840
2640
3536
1744
1968
5937
4129
5617
4064
2464
3872
1984
12547
23605
19124
4833
3712
4145
15427
18244
6465
6769
4929
10434
2896
25942
12387
1792
5601
4417
1840
9554
7617
9570
3008
4497
7633
1792
3264
2992
2608
2272
2752
2608
3536
4529
2192
2224
2352
3680
3792
2240
2624
1856
1664
2304
2816
1680
4609
5665
1728
1920
1600
2624
2528
4497
1872
1872
6849
2704
3424
2912
11026
2880
2320
2128
2048
1808
4753
6881
6529
5041
3456
2160
5521
7473
4032
7777
3408
1744
2208
3200
2432
2608
7729
9490
2480
2736
2816
2320
2512
4881
3584
3152
5249
4177
8242
2832
8610
5761
2096
7121
7169
2800
7697
2656
3504
3648
5425
2384
1696
3152
2512
2368
2448
2096
3232
2176
2000
2304
3264
1984
2880
2864
2832
2464
1968
3824
2336
2208
2512
1984
2864
2384
1728
1616
3424
2304
1776
2096
2304
2096
2080
1840
5969
6337
3024
3904
2880
3936
4577
6449
3904
3408
3504
2304
2512
4321
2304
1712
2688
5889
3616
2992
2272
7553
3376
4513
4705
1888
2848
2224
1968
1680
1776
1968
1744
2144
2256
2048
2272
4113
6033
2496
5729
2352
1920
3696
2448
2496
2080
1984
5233
2240
2976
2160
8177
2608
2992
2400
1680
2240
2352
1872
2048
3184
2432
2016
2272
2240
2000
6865
3600
7409
2656
2256
1920
1872
2128
2368
2944
2480
2096
1744
2736
2448
2640
2848
2448
5121
3216
4241
2256
8978
1584
3968
5313
2896
2240
2656
2240
2336
1728
2112
1856
2432
2048
2336
2160
1664
2016
1696
2208
2384
1856
1840
3008
1936
2304
1568
3776
2704
2240
2016
3008
2688
2240
2896
6321
4545
2304
2096
2448
4993
7329
6801
2336
7073
7665
2560
2096
288
2352
2960
2832
1984
1680
1872
2384
2704
2576
3120
4577
4080
2176
2560
5217
5281
6433
2240
1744
2960
4497
5633
13923
9682
2960
5633
7809
8258
7825
2336
2112
2128
2656
2736
2096
4833
2464
2368
2144
3568
2736
2640
4529
2480
2240
3664
2112
2016
2368
1792
1888
2400
2016
2048
2448
1936
1888
2000
1936
2992
3920
3264
2048
1904
2016
2688
2256
2656
3376
2016
1984
3024
2352
2880
3056
2192
1760
2384
10386
8642
6145
1984
7329
12387
4913
3504
4193
3408
4897
3088
2192
2880
3200
6721
1952
2720
2464
2224
2384
2368
2256
2224
1984
2064
4993
2064
1568
2288
4689
2704
1648
2064
2352
2048
3120
1712
2336
3840
2368
2192
6193
4545
5729
3040
2208
2112
2176
1840
2080
3344
1856
3712
2048
2448
4161
3520
1680
2000
3008
6705
3392
6433
3584
2080
1984
1760
1968
1696
1728
3136
2336
2448
2064
7009
1968
6721
4897
2608
3456
1696
2304
1888
2400
2064
2400
1760
2000
2864
3120
4385
1760
4801
12162
7633
5169
3072
1712
1888
2256
1824
2896
3344
2352
5473
2912
4529
4801
3008
2944
4177
2880
3024
3776
1984
3408
3168
1504
2176
1696
2960
2208
2784
3040
2896
3024
2272
2080
3200
2864
3056
1760
2560
1728
2816
3136
4257
2144
3888
5889
1984
2656
2240
1792
2144
2720
2608
2272
2176
1824
2256
1840
1984
1888
2192
3936
3328
2976
2880
2096
1824
2416
2256
2240
2256
1728
2176
2192
1680
2064
1984
2032
2336
2352
2288
2128
2672
1760
2192
2224
1936
2848
2592
2080
2544
2064
2640
1744
1696
1808
2000
2432
2144
1616
2000
1872
2096
2064
1552
2240
1744
1664
1952
1840
1872
2656
2480
2256
2480
2736
1664
2000
2768
1936
1552
2096
2176
2016
3664
2288
2128
2240
2048
2240
2480
2080
2528
1568
2880
3344
3248
2064
2368
2064
2272
2576
3040
1776
1936
1920
1968
2000
2096
2272
2224
1776
2336
2416
2176
2480
2432
3856
3344
1760
1616
2976
1792
1920
1968
2944
2208
2256
1744
2528
1856
1840
2176
2064
2176
2384
2528
2400
2016
1824
2336
6049
17796
10946
16484
17332
6369
3600
1872
1824
1632
2064
2496
1792
2192
2624
4417
8786
2560
5329
2640
2016
2256
1696
2080
4433
2544
1696
1632
1840
2128
1872
2400
2048
1888
1584
2320
3024
1696
4625
3424
1776
2048
2528
2576
2464
1792
1664
2224
2640
1792
1888
1792
2624
1792
2304
2256
2880
2080
2800
2192
2080
1680
2256
1984
1824
1680
1888
1488
2624
4305
1888
2272
2064
1936
2208
2240
3552
2192
1552
2048
1984
2016
5217
1984
2304
5137
2352
2224
2704
2576
2720
1808
2144
2272
3088
2432
4048
2128
2432
2480
1728
2144
1936
2080
3600
2064
1504
2096
1824
1488
1872
2368
1632
2224
1712
1616
1632
2400
1840
2176
1584
1712
1712
1584
3840
1424
2656
2704
1760
2496
1744
2464
2384
2000
2224
1856
1952
3040
1712
3456
3408
2720
2144
2480
1728
2768
2768
4401
2880
2016
2640
2656
3456
3776
1952
1632
1792
3264
3392
1840
1968
2480
3168
2208
2320
1632
2208
1712
1952
1696
2656
2832
2432
2752
2272
2800
2176
2528
4289
4048
3232
3584
2528
2176
2656
2880
2128
1952
1600
1920
1840
1824
2864
3808
1760
2016
5521
2192
3744
6993
3136
2592
2832
1872
2832
1808
3088
3008
1872
1632
2288
1808
1936
2016
1824
3216
1856
3632
4225
2912
2512
2272
3424
4689
3520
6529
2624
1840
2272
1888
1920
1936
1216
3344
3856
3856
2480
3248
4016
2192
2144
1424
2400
2496
1504
2000
2880
3648
3504
2112
1840
2992
1616
2192
2944
4817
2544
2080
2448
1936
2208
1920
2000
1840
2480
1856
2160
2000
2064
1712
2096
2656
2768
2880
2688
2208
1696
2256
2336
2016
2560
2064
1712
5201
3472
2496
4689
4801
2224
1600
4577
2016
2544
1856
2480
1696
1792
2160
2192
3184
1984
3760
2496
1568
1552
1792
1456
2064
2896
4481
1808
2368
2576
2944
1840
1920
3776
1824
1680
1728
2112
2048
2960
2016
1856
2048
1568
2320
2144
2272
1504
1856
2176
3072
2912
1920
4080
2768
1888
2112
2768
2640
5553
4817
1568
3392
3216
1840
3584
2000
2048
2448
1968
2080
2192
1552
1968
2000
2656
2320
4625
3024
1968
6673
8898
8033
2880
1632
2304
2208
1728
2224
2192
2080
1632
1728
2704
1920
1520
2992
2176
2128
1840
1424
3216
2736
5713
2176
2048
2224
2128
2304
1824
1680
2384
1728
1760
1600
1792
1696
3136
2176
4369
2064
8065
3840
2448
2304
2320
1840
2768
2288
2464
2384
2096
2208
1920
1488
1664
2896
1936
3344
1728
3216
2768
1936
2352
2096
1680
1600
2608
3344
1936
3328
1536
2464
2208
2176
2768
3408
2240
1616
1792
3088
2592
2096
1712
3152
2320
2144
2240
2752
2752
2528
2608
1600
1680
2832
2048
1872
4561
2512
1808
2320
2032
2736
1824
3040
7889
7057
8017
10434
1376
2320
2288
1712
1680
2688
1744
2736
2528
2944
2624
1936
2224
2720
2224
2416
1552
1728
1600
2240
2144
2112
1568
1664
1840
2176
1776
2352
2016
1920
1680
2480
1808
2384
1968
1968
2208
1712
2096
2288
1552
1776
1712
1440
3728
2304
2144
2448
2720
2112
2240
1936
1696
1552
2432
2608
2112
6801
2016
6001
4513
2816
2464
2640
2176
1696
2304
2128
2832
4817
2720
1584
2864
2000
2240
3536
1664
2304
1552
1664
1776
912
1552
2320
2320
2176
7041
15523
2736
5473
2560
2608
2864
7041
9218
3840
3104
1760
3040
2896
2384
4305
2336
2320
2560
2224
1664
2576
1984
1888
2816
4945
3648
3392
5969
2432
1664
1712
2656
2848
1584
2096
1984
2480
2576
3344
1984
4433
3040
2816
2272
1824
2080
1952
1808
1920
4689
5089
4705
2800
3376
9074
10482
6001
5009
2656
1792
2704
1600
1792
2608
2112
1840
1328
1344
1632
1552
1712
1664
1856
1760
1680
1616
2192
1568
1728
2752
1744
1936
1856
4817
2352
2080
2160
1664
2192
1968
1840
1744
2640
1632
1904
2224
1984
2272
2272
2832
3760
1872
2080
1936
2080
2304
1744
1984
1840
1616
3120
2608
3024
1792
2400
3456
2688
2000
1664
2480
1744
2240
2832
2496
1488
1840
2160
2400
1936
1680
2208
1984
2176
2304
4897
4097
3168
2192
2080
1872
2144
1776
1664
1984
2976
3664
3168
3968
1616
1984
1648
1680
1712
2064
1840
1296
2112
1792
2240
4641
3584
2608
2144
1824
2592
3216
2624
1600
1760
2208
1968
1728
1888
1536
2304
2304
1808
3488
1840
2336
2112
3664
2992
2688
1872
1680
2528
2096
1984
2112
1568
1728
2128
1792
1824
3168
2864
1824
2176
2368
2688
2048
1984
1696
2704
2208
1920
2224
1952
1744
2256
1712
1856
3568
3152
3056
1792
2352
2032
2832
2384
1888
1600
3232
1856
2480
2112
3088
4369
2176
5265
2112
2128
2384
3840
2096
3696
2656
2368
1696
2528
3024
1888
2080
1680
2320
1712
2192
1568
2336
2608
4433
3936
1824
4929
1920
1872
2560
2192
1760
1728
1792
1472
1584
1936
2048
1568
2000
2048
2128
1776
1712
3984
2464
4369
2368
2240
1584
2768
2752
1344
2064
1840
2096
1984
2128
2880
1760
1616
6225
2896
2144
1792
1984
2464
2000
2080
1712
1808
1600
2000
2016
1600
1744
1616
1568
2112
1856
2208
1664
1696
2624
2496
2624
3472
4385
2560
2768
2176
1952
1616
2384
2480
8498
3280
1984
1872
2000
2304
1824
2208
2128
2304
2448
2048
1408
1632
1856
1712
1984
1712
1936
1600
2000
3632
1856
1968
1504
1856
1936
1600
1952
1568
1504
2544
2368
2048
1840
2128
1712
3088
1744
1792
1840
2960
3968
2736
1760
1584
1936
1984
1904
1664
1680
2272
3872
2608
2336
2080
3216
2224
1872
2352
3600
2784
2112
1968
2112
1760
1616
2192
2144
2192
2576
2480
1824
1712
2192
2624
1936
1696
2096
2352
4385
3856
2352
1968
1856
2864
1952
2640
3168
2208
2240
1632
2176
1552
3920
1840
3776
2176
2048
1920
1712
2144
1584
1840
2816
2320
4369
2048
2080
1616
3008
1536
2320
2192
2288
1840
1664
2720
1984
1552
2144
2192
1616
2160
2336
2304
1664
2384
1840
1872
1792
2432
2080
1872
1712
1744
2224
5089
2128
2592
2080
3392
2112
3920
2736
2480
2304
1632
2064
1776
1472
1680
1744
2208
1840
3024
3296
6177
2128
1664
2784
1536
5953
1888
2320
2368
2176
3024
3280
4881
2368
1936
2208
3120
2432
2800
2512
2320
3456
2768
5009
3280
2784
2800
3248
2096
2032
3104
7361
2208
1696
2272
2192
1584
4016
3296
2176
1856
2528
2272
2080
3152
2640
1648
2352
1552
1488
1872
1872
2304
2000
2096
2112
1712
2448
2720
2480
1856
2576
5937
1872
9490
3024
1712
1792
2128
3072
2288
1872
2832
1808
1744
1856
1840
3040
3072
2320
2816
2304
1648
1920
2048
1872
1824
1952
2320
1664
1584
1856
2320
2752
2576
2480
2192
2048
2000
1952
1696
1952
5009
2288
2560
2560
1968
1568
2592
2512
2192
2736
1808
2448
2768
1520
2128
1088
2304
4433
2560
2064
2304
2176
2064
1792
3712
4177
1824
2176
5169
5681
1856
8177
2752
1456
2256
3600
3856
3792
4689
2784
1840
2784
1856
2352
2832
3792
3168
1312
5121
6273
3664
3024
4529
2208
2304
2864
3360
3632
3232
2096
2272
2736
2256
1728
2304
1456
2240
3120
2096
2080
4369
1792
1616
2272
2320
2512
1664
2336
2224
2048
3344
2944
2704
4113
6049
7329
2912
8065
2768
2064
2304
2064
1888
2992
2368
2464
2208
1568
2464
2304
2080
1744
1840
2224
2432
2512
3680
2048
2016
2064
2096
1888
4737
2224
2288
1664
1744
1920
1984
1808
2096
1936
2016
2384
1808
2208
1920
3968
3264
1680
3808
8546
4817
4561
8017
1824
7553
4145
2560
2736
3616
2192
2976
2688
1936
7073
3744
2720
3360
1776
2848
1888
2592
5809
2896
3904
2912
2432
2432
2064
2224
1888
2512
2768
7105
9234
7441
7217
5089
5281
2304
2128
1424
2240
3424
3472
7793
3280
1616
1712
3360
2896
1840
1936
2112
1824
1936
2768
3712
1648
2928
2640
1568
2080
2176
4048
2208
1984
1632
2880
1584
1536
2176
1888
2368
2288
1792
2400
3024
1904
1792
1968
1600
1632
2144
3008
2720
2336
1760
2784
1472
2624
1600
2112
2240
2640
2032
1792
1968
3120
1664
2096
3360
1808
4593
1728
2032
1920
2880
2256
1680
1600
2176
1824
2176
1888
1968
1872
3552
2048
1808
2080
1600
2368
2848
1920
3616
2352
8722
6529
2080
5793
2192
3424
4000
1616
2592
6065
3712
8658
3248
2112
2176
3072
2048
1728
1728
2000
1632
1760
1888
1696
1536
2048
2256
1968
2704
1728
2384
3248
2608
4865
1872
2048
3216
2432
3136
4161
2272
1952
1664
1824
3088
1632
1872
1872
1936
2256
2256
1968
1584
1968
2848
2560
2096
1712
1520
2464
1840
3296
1584
2704
2880
3504
1952
1728
2288
1552
2128
2816
2448
1936
2112
2112
1648
2096
1744
2064
2016
2096
2000
2144
1952
1696
1632
2224
2352
2384
2352
2960
1984
2176
2096
1424
1952
1968
1760
2400
2736
2240
1696
1840
2816
3120
2128
1840
2112
1840
2112
2192
2784
1936
2096
2192
3200
5185
6369
2656
2112
1728
2112
2016
3264
2976
2128
1840
1504
1552
1632
1664
2208
1712
1968
2000
1840
2208
1824
1600
2096
1888
2336
1808
2080
1696
1824
3264
2208
1984
2112
1856
2224
2432
2048
1760
1696
2176
1552
3248
2720
2176
5921
2000
4481
2128
1680
1408
1920
2352
1520
1968
1616
2112
2064
1488
3120
1760
2880
2368
1984
1872
3920
2720
2832
1936
7633
1584
2128
2800
2384
2352
2944
1728
2224
1936
1536
5361
3952
2032
3168
3472
2048
1872
2208
2288
3152
1856
2480
2832
2448
2064
1552
1744
2768
1696
2960
2576
2768
1968
2096
3280
1952
2384
1872
2080
2384
1680
1664
1664
1824
1632
1568
1808
1856
1744
2112
1856
2080
2368
2064
1680
1952
2144
2208
1872
1760
1936
2320
2272
2496
1808
1584
1824
1968
1952
1968
1584
2016
2736
1952
1472
1984
2048
1728
3008
2272
2640
2000
2480
2080
1440
1488
2496
2832
2304
1840
1984
1872
1872
2208
2320
2080
1952
2688
1952
2480
1856
2496
2592
1840
1920
1488
2016
1680
1712
1840
2432
4129
2272
6577
3424
3264
1648
2752
2864
1888
2128
2000
2336
1632
2080
2016
1984
2064
2224
1504
2224
2176
1744
1744
2272
2496
1760
7825
2880
3648
3600
3648
2656
3584
1744
3648
1760
1856
2688
1536
2000
3152
2832
2352
3280
2608
2080
3232
1632
1760
992
5153
4529
3760
1920
8386
5393
2400
2880
1760
2096
1696
2112
1568
2080
3168
2320
2000
2576
1760
3600
2128
2240
2752
1984
3232
2064
1952
1856
1968
1632
5297
8690
5633
1872
3280
1728
1568
1744
2576
1792
1728
3216
2656
2608
3488
2624
2096
2720
3408
2496
8754
3408
2848
2256
2128
3120
2736
3232
2112
2496
2496
2176
2512
1632
2336
1808
2000
1808
2368
1904
2432
3360
2624
2336
2080
1872
4289
6417
2368
5665
1856
1792
1488
2064
2000
2080
2384
2784
2048
2096
1872
1552
1728
1792
1616
2144
2064
3296
2112
1744
3024
4145
2912
2080
2352
2128
6897
2000
2352
2480
3280
2272
4529
2064
2016
3200
2000
2400
2752
3040
4161
2576
2784
2304
2432
1936
1744
2320
1664
2880
1984
2880
3872
2368
1872
1744
1728
2944
1808
1744
1888
2576
3552
2976
2144
2432
1584
1568
1696
2336
1952
2224
3648
1632
3776
2288
1936
1616
1632
2192
1856
1792
1616
1984
1504
2032
2864
1568
1856
3120
2336
2336
3088
1888
1856
1296
2144
1824
2304
1616
2592
2224
2496
1952
5313
4000
3808
2048
2000
1680
1696
2432
1936
3488
1792
1712
2976
2864
2048
2528
2176
2400
2272
2144
2144
1952
2384
2960
2016
1904
2176
1568
1696
1840
2144
2864
1600
2192
2384
3760
2352
2016
2640
2720
2144
1712
2720
2000
2960
1680
2064
1552
1760
2128
1936
2080
3168
1872
2336
1888
1824
1920
1728
2064
2096
1616
1696
1824
1952
5761
8177
11730
3344
2592
2800
3200
2096
2880
2288
2096
2000
1632
1792
2208
1968
1920
4577
2464
2384
2720
5473
5281
4129
3472
1824
1728
2672
2256
2304
2544
1728
1616
1888
1904
2224
3008
2128
2256
2640
2304
2272
3552
2592
2048
3456
2208
1568
896
1744
2448
1424
3216
2064
5329
3776
2320
2240
1808
1968
2704
2864
2560
2736
2992
2688
2736
2464
2752
1856
2240
3120
2320
3472
1952
2960
2656
3008
2240
1776
4032
4833
2448
6417
3536
2848
2640
1984
2448
1680
2256
2848
1648
2224
2656
1872
1792
2960
1664
2144
3584
2832
2768
3504
4273
3424
2400
2256
2224
1552
1840
1920
2224
13139
13827
6417
9266
6081
3872
3344
3744
2224
1600
2352
1840
1888
3136
1824
2048
688
2576
1952
1824
3360
3760
4689
2832
2688
3712
6177
5041
2512
5729
6865
2176
5409
8113
3680
1760
2768
3552
2560
1760
1840
2320
1856
2096
1872
1616
2272
1648
2704
2560
2304
2240
1888
2464
1888
2944
1872
1712
1888
2128
1952
2112
2240
1936
2608
1792
2240
1808
1984
2640
1728
2256
2064
2368
3984
3584
4545
3680
1616
2096
1792
1696
1568
1776
1696
1968
2624
1728
3248
2336
1472
1984
2192
1744
1968
3104
3792
1792
3040
1872
2192
1968
2992
3472
1760
1456
4881
2864
5969
2256
2272
2192
2128
2560
1824
4513
2528
2336
1984
1872
2112
2080
3008
2640
2624
3040
2000
3456
2576
3200
2128
2000
2256
1744
2656
2448
2064
1680
2720
2912
4513
2656
2656
1824
1680
2528
2384
2560
3392
2512
2320
1776
2656
2128
4609
1728
5633
1712
1744
1680
2192
1552
2896
1456
1984
3872
2832
2176
1760
1696
2096
2064
1872
1888
1808
2896
3600
1824
2080
1744
1568
1680
1664
2256
2080
2224
2080
2544
5585
2640
1984
1888
2304
3456
3392
2864
2400
2208
1552
2112
2432
1792
2128
1456
2608
1744
2288
1968
2048
1808
3712
1696
2592
1920
2112
2528
1968
1760
2080
1536
1680
1616
3344
3760
3696
4145
2048
2224
1040
2016
2592
1312
2176
2560
4016
2560
1712
6721
5409
6961
3360
1648
1760
2128
2240
4753
2816
5585
4161
1744
2464
1824
1808
1744
1568
2128
1600
1920
2096
2192
2096
1456
2192
3152
2800
4129
1728
5457
2768
3872
3776
2512
4113
2496
4385
2128
4817
2192
1984
1728
1696
3376
1728
2512
2080
2064
1824
1856
2624
1968
2064
2000
2400
1680
1680
1584
1696
2112
2000
1872
2144
1568
2512
2080
2208
1824
1632
1856
1536
2368
2304
1600
1536
2208
3792
2336
3584
1504
3344
3168
1616
2352
2208
1888
2608
2144
1984
2688
4273
2496
1664
2336
2688
1952
1808
1424
2096
2048
2128
2272
1696
1808
2784
2256
1360
2096
2400
2016
1712
1856
2560
1472
1520
1824
3216
3232
1936
2048
2272
2832
2304
2224
1568
1808
3888
5841
2432
1680
4593
2992
1872
1968
1472
2064
1840
1920
1552
1968
1824
2704
2352
1456
1888
1776
2592
1440
4817
2608
3280
3136
2240
5937
5505
7889
4529
1792
2096
6497
3168
2512
1856
2176
2944
1552
1792
2064
1808
2048
1504
2224
2064
2272
2080
2816
3488
1648
2880
2128
1888
1744
1504
1616
2880
2640
4945
1664
2304
3088
2928
2224
2064
1840
1920
1552
2016
1536
1648
1984
1408
1984
2096
2976
2432
2240
6625
3088
4545
2048
3328
2320
1984
2208
3488
2944
2864
1856
2032
1680
2976
2432
2352
3632
2000
1872
2208
1680
1808
2112
1856
1504
2256
2512
2176
2432
1616
1744
1616
1744
2768
2048
2992
1920
2640
2192
3296
1456
1904
1520
2176
2512
2560
3520
1856
3408
4273
3552
3152
2064
1840
2512
1744
1984
1872
1952
2048
1472
2000
5553
8274
2576
9010
10994
2624
1888
2592
1824
2608
2016
1520
4048
1984
1952
2128
2640
2192
2704
3376
2128
2944
1872
1680
2112
2512
1824
3104
5761
2672
1536
2016
1600
2752
2272
1808
1680
2528
1824
2432
1888
1776
2880
2144
1744
1408
1856
3920
4145
7697
5313
2000
1984
1872
2256
2320
1664
1664
2368
1552
1824
1968
1664
2224
2432
2336
1840
2096
1616
2464
1792
1936
2064
1904
1728
2224
1680
2064
1936
2240
1760
3168
2240
2976
1968
1824
1776
2000
1728
2176
2352
1984
2208
1856
2144
1488
2048
3424
4161
4897
1856
1808
1952
1824
6833
2816
4849
4273
3120
2112
1536
1584
2304
1552
1536
1920
2576
2560
2224
1968
2064
1888
2192
2720
3776
1968
5281
9234
4145
8578
6977
3536
7057
4177
1888
2144
2448
3152
1904
3760
4417
1744
2320
2128
2224
2000
2048
3280
15299
3984
7121
2320
2144
2048
2384
5233
3600
2512
3456
1728
1584
1936
1936
2656
3424
2352
1680
2720
1488
2464
6177
4113
2672
1632
2224
3888
2560
2752
3744
2720
1632
2064
2256
1968
2048
2624
3136
2304
1936
1760
2288
2080
1568
1696
1600
1472
1504
2272
1808
1936
1872
4993
1968
5185
2272
1600
2048
2256
1936
2640
1568
2112
1760
1808
2352
2048
2304
1792
2640
1664
1872
1968
1792
1488
4529
1472
2208
2976
1664
1984
2288
5073
3536
3296
4000
2736
2896
3360
1680
8402
2992
3216
1824
2016
3344
2736
3328
2608
1632
1920
2112
2240
1376
1888
5889
2352
1904
2112
1808
2240
2080
2128
1888
1712
1856
1760
2272
1888
1632
3280
3328
1920
1920
2112
1632
1600
1872
2240
3856
2400
1584
4673
1968
3120
1952
2016
2064
2144
1952
1568
2208
2352
2096
1632
1872
2320
2000
1920
1696
2480
2048
3088
7217
2384
4048
2000
2192
2224
2832
2512
1408
2112
1808
1632
3792
2000
2352
1872
2240
1600
1664
2448
4080
2800
2496
1360
2224
1824
2320
1760
2112
1888
1472
1952
2048
1840
1760
2464
2192
2128
2704
1952
2496
2112
3264
6881
5953
1920
2736
2400
2112
4801
2704
2192
592
2928
2480
1616
3824
2480
2576
2144
2944
4769
6049
4080
1840
2000
2128
1888
2016
2704
2496
3072
4705
2208
2128
1408
1808
1904
1456
1952
1824
1728
1456
1664
2592
2400
2320
1728
